ref_pos_lat (deg),ref_pos_lon (deg),ref_pos_alt (m)
3.200000000000000000e+01,1.199999999999999858e+02,0.000000000000000000e+00
3.200000018036410410e+01,1.199999999999999858e+02,-2.449293598294706384e-18
3.200000036072820819e+01,1.200000000000332534e+02,-4.898587196589412767e-18
3.200000054109229097e+01,1.200000000001296598e+02,-7.347880794884118380e-18
3.200000072145632402e+01,1.200000000003161631e+02,-9.797174393178825534e-18
3.200000090182024337e+01,1.200000000006170211e+02,-1.224646799147353269e-17
3.200000108218396377e+01,1.200000000010540333e+02,-1.469576158976823984e-17
3.200000126254736443e+01,1.200000000016468107e+02,-1.714505518806294700e-17
3.200000144291028192e+01,1.200000000024130173e+02,-1.959434878635765415e-17
3.200000162327254571e+01,1.200000000033686121e+02,-2.204364238465236130e-17
3.200000180363394975e+01,1.200000000045278341e+02,-2.449293598294706846e-17
3.200000198399424534e+01,1.200000000059036154e+02,-2.694222958124177561e-17
3.200000216435316958e+01,1.200000000075075235e+02,-2.939152317953647968e-17
3.200000234471043115e+01,1.200000000093499750e+02,-3.184081677783118684e-17
3.200000252506574583e+01,1.200000000114404202e+02,-3.429011037612589399e-17
3.200000270541875835e+01,1.200000000137872149e+02,-3.673940397442060115e-17
3.200000288576913476e+01,1.200000000163980474e+02,-3.918869757271530830e-17
3.200000306611652690e+01,1.200000000192796676e+02,-4.163799117101001545e-17
3.200000324646054395e+01,1.200000000224383143e+02,-4.408728476930472261e-17
3.200000342680080934e+01,1.200000000258795012e+02,-4.653657836759942976e-17
3.200000360713692515e+01,1.200000000296081879e+02,-4.898587196589413692e-17
3.200000378746847929e+01,1.200000000336288650e+02,-5.143516556418884407e-17
3.200000396779506673e+01,1.200000000379455827e+02,-5.388445916248355122e-17
3.200000414811626825e+01,1.200000000425619646e+02,-5.633375276077825838e-17
3.200000432843165044e+01,1.200000000474812651e+02,-5.878304635907295937e-17
3.200000450874077984e+01,1.200000000527064401e+02,-6.123233995736766036e-17
3.200000468904323014e+01,1.200000000582400901e+02,-6.368163355566236135e-17
3.200000486933856081e+01,1.200000000640846309e+02,-6.613092715395706234e-17
3.200000504962631709e+01,1.200000000702421801e+02,-6.858022075225176333e-17
3.200000522990606555e+01,1.200000000767146702e+02,-7.102951435054646432e-17
3.200000541017735856e+01,1.200000000835038065e+02,-7.347880794884116531e-17
3.200000559043974135e+01,1.200000000906111239e+02,-7.592810154713586630e-17
3.200000577069277341e+01,1.200000000980380435e+02,-7.837739514543056730e-17
3.200000595093599998e+01,1.200000001057858299e+02,-8.082668874372526829e-17
3.200000613116895920e+01,1.200000001138555490e+02,-8.327598234201996928e-17
3.200000631139121055e+01,1.200000001222482808e+02,-8.572527594031467027e-17
3.200000649160229926e+01,1.200000001309648781e+02,-8.817456953860937126e-17
3.200000667180177061e+01,1.200000001400061791e+02,-9.062386313690407225e-17
3.200000685198916983e+01,1.200000001493728519e+02,-9.307315673519877324e-17
3.200000703216404219e+01,1.200000001590656353e+02,-9.552245033349347423e-17
3.200000721232594714e+01,1.200000001690850695e+02,-9.797174393178817522e-17
3.200000739247441572e+01,1.200000001794316944e+02,-1.004210375300828762e-16
3.200000757260900031e+01,1.200000001901059221e+02,-1.028703311283775772e-16
3.200000775272925324e+01,1.200000002011082216e+02,-1.053196247266722782e-16
3.200000793283472689e+01,1.200000002124389624e+02,-1.077689183249669792e-16
3.200000811292495229e+01,1.200000002240984429e+02,-1.102182119232616802e-16
3.200000829299949601e+01,1.200000002360869900e+02,-1.126675055215563935e-16
3.200000847305789620e+01,1.200000002484048167e+02,-1.151167991198510945e-16
3.200000865309970521e+01,1.200000002610522358e+02,-1.175660927181457955e-16
3.200000883312447542e+01,1.200000002740293610e+02,-1.200153863164404965e-16
3.200000901313175916e+01,1.200000002873364338e+02,-1.224646799147351975e-16
3.200000919312109460e+01,1.200000003009735963e+02,-1.249139735130298984e-16
3.200000937309204829e+01,1.200000003149409622e+02,-1.273632671113245994e-16
3.200000955304415129e+01,1.200000003292386737e+02,-1.298125607096193004e-16
3.200000973297697726e+01,1.200000003438668017e+02,-1.322618543079140014e-16
3.200000991289006436e+01,1.200000003588255169e+02,-1.347111479062087024e-16
3.200001009278297204e+01,1.200000003741147907e+02,-1.371604415045034034e-16
3.200001027265524556e+01,1.200000003897347796e+02,-1.396097351027981044e-16
3.200001045250644438e+01,1.200000004056854692e+02,-1.420590287010928054e-16
3.200001063233611376e+01,1.200000004219669307e+02,-1.445083222993875064e-16
3.200001081214382026e+01,1.200000004385791925e+02,-1.469576158976822074e-16
3.200001099192910203e+01,1.200000004555222830e+02,-1.494069094959769084e-16
3.200001117169151854e+01,1.200000004727962164e+02,-1.518562030942716093e-16
3.200001135143062925e+01,1.200000004904010211e+02,-1.543054966925663103e-16
3.200001153114598651e+01,1.200000005083366403e+02,-1.567547902908610113e-16
3.200001171083714269e+01,1.200000005266031593e+02,-1.592040838891557123e-16
3.200001189050364303e+01,1.200000005452005212e+02,-1.616533774874504133e-16
3.200001207014506122e+01,1.200000005641287117e+02,-1.641026710857451143e-16
3.200001224976094960e+01,1.200000005833877594e+02,-1.665519646840398153e-16
3.200001242935084633e+01,1.200000006029775932e+02,-1.690012582823345163e-16
3.200001260891431798e+01,1.200000006228982130e+02,-1.714505518806292173e-16
3.200001278845092401e+01,1.200000006431495905e+02,-1.738998454789239183e-16
3.200001296796020966e+01,1.200000006637317256e+02,-1.763491390772186193e-16
3.200001314744174152e+01,1.200000006846445331e+02,-1.787984326755133202e-16
3.200001332689507905e+01,1.200000007058880271e+02,-1.812477262738080212e-16
3.200001350631976749e+01,1.200000007274621368e+02,-1.836970198721027222e-16
3.200001368571535920e+01,1.200000007493668193e+02,-1.861463134703974232e-16
3.200001386508142076e+01,1.200000007716020463e+02,-1.885956070686921242e-16
3.200001404441751163e+01,1.200000007941678035e+02,-1.910449006669868252e-16
3.200001422372318416e+01,1.200000008170639774e+02,-1.934941942652815262e-16
3.200001440299799071e+01,1.200000008402905820e+02,-1.959434878635762272e-16
3.200001458224149786e+01,1.200000008638475464e+02,-1.983927814618709282e-16
3.200001476145325796e+01,1.200000008877348421e+02,-2.008420750601656292e-16
3.200001494063281626e+01,1.200000009119523412e+02,-2.032913686584603302e-16
3.200001511977975355e+01,1.200000009365000722e+02,-2.057406622567550311e-16
3.200001529889361507e+01,1.200000009613779639e+02,-2.081899558550497321e-16
3.200001547797395318e+01,1.200000009865859170e+02,-2.106392494533444331e-16
3.200001565702033446e+01,1.200000010121239171e+02,-2.130885430516391341e-16
3.200001583603231836e+01,1.200000010379918933e+02,-2.155378366499338351e-16
3.200001601500945014e+01,1.200000010641897745e+02,-2.179871302482285361e-16
3.200001619395130348e+01,1.200000010907175039e+02,-2.204364238465232371e-16
3.200001637285743072e+01,1.200000011175750245e+02,-2.228857174448179381e-16
3.200001655172738424e+01,1.200000011447622796e+02,-2.253350110431126391e-16
3.200001673056072349e+01,1.200000011722791697e+02,-2.277843046414073401e-16
3.200001690935702214e+01,1.200000012001256806e+02,-2.302335982397020411e-16
3.200001708811581835e+01,1.200000012283017128e+02,-2.326828918379967420e-16
3.200001726683669290e+01,1.200000012568071952e+02,-2.351321854362914430e-16
3.200001744551917682e+01,1.200000012856420710e+02,-2.375814790345861440e-16
3.200001762416285800e+01,1.200000013148062550e+02,-2.400307726328808450e-16
3.200001780276727459e+01,1.200000013442996902e+02,-2.424800662311755460e-16
3.200001798133199316e+01,1.200000013741223341e+02,-2.449293598294702470e-16
3.200001815985656606e+01,1.200000014042740730e+02,-2.473786534277649480e-16
3.200001833834057408e+01,1.200000014347548216e+02,-2.498279470260596490e-16
3.200001851678354825e+01,1.200000014655645515e+02,-2.522772406243543500e-16
3.200001869518506936e+01,1.200000014967031490e+02,-2.547265342226490510e-16
3.200001887354468977e+01,1.200000015281705430e+02,-2.571758278209437520e-16
3.200001905186196893e+01,1.200000015599666767e+02,-2.596251214192384529e-16
3.200001923013646632e+01,1.200000015920914649e+02,-2.620744150175331539e-16
3.200001940836774139e+01,1.200000016245448364e+02,-2.645237086158278549e-16
3.200001958655536072e+01,1.200000016573266777e+02,-2.669730022141225559e-16
3.200001976469888376e+01,1.200000016904369460e+02,-2.694222958124172569e-16
3.200001994279786288e+01,1.200000017238755419e+02,-2.718715894107119579e-16
3.200002012085185754e+01,1.200000017576423943e+02,-2.743208830090066589e-16
3.200002029886044141e+01,1.200000017917373754e+02,-2.767701766073013599e-16
3.200002047682316686e+01,1.200000018261604708e+02,-2.792194702055960609e-16
3.200002065473958623e+01,1.200000018609115671e+02,-2.816687638038907619e-16
3.200002083260928032e+01,1.200000018959905645e+02,-2.841180574021854629e-16
3.200002101043179437e+01,1.200000019313973922e+02,-2.865673510004801639e-16
3.200002118820669494e+01,1.200000019671319365e+02,-2.890166445987748648e-16
3.200002136593354152e+01,1.200000020031941688e+02,-2.914659381970695658e-16
3.200002154361190065e+01,1.200000020395839329e+02,-2.939152317953642668e-16
3.200002172124133182e+01,1.200000020763011719e+02,-2.963645253936589678e-16
3.200002189882139447e+01,1.200000021133457864e+02,-2.988138189919536688e-16
3.200002207635164808e+01,1.200000021507177053e+02,-3.012631125902483698e-16
3.200002225383166632e+01,1.200000021884168149e+02,-3.037124061885430708e-16
3.200002243126099444e+01,1.200000022264430299e+02,-3.061616997868377718e-16
3.200002260863920611e+01,1.200000022647962652e+02,-3.086109933851324728e-16
3.200002278596586081e+01,1.200000023034763927e+02,-3.110602869834271738e-16
3.200002296324051798e+01,1.200000023424833415e+02,-3.135095805817218748e-16
3.200002314046274421e+01,1.200000023818170405e+02,-3.159588741800165757e-16
3.200002331763210606e+01,1.200000024214773617e+02,-3.184081677783112767e-16
3.200002349474815588e+01,1.200000024614642058e+02,-3.208574613766059777e-16
3.200002367181046736e+01,1.200000025017774590e+02,-3.233067549749006787e-16
3.200002384881859285e+01,1.200000025424170929e+02,-3.257560485731953797e-16
3.200002402577210603e+01,1.200000025833829085e+02,-3.282053421714900807e-16
3.200002420267055925e+01,1.200000026246748774e+02,-3.306546357697847817e-16
3.200002437951353329e+01,1.200000026662928718e+02,-3.331039293680794827e-16
3.200002455630056630e+01,1.200000027082368064e+02,-3.355532229663741837e-16
3.200002473303124617e+01,1.200000027505065248e+02,-3.380025165646688847e-16
3.200002490970512525e+01,1.200000027931019986e+02,-3.404518101629635857e-16
3.200002508632176301e+01,1.200000028360230715e+02,-3.429011037612582866e-16
3.200002526288074023e+01,1.200000028792696583e+02,-3.453503973595529876e-16
3.200002543938160215e+01,1.200000029228416309e+02,-3.477996909578476886e-16
3.200002561582392957e+01,1.200000029667389043e+02,-3.502489845561423896e-16
3.200002579220727483e+01,1.200000030109613647e+02,-3.526982781544370906e-16
3.200002596853121872e+01,1.200000030555088983e+02,-3.551475717527317916e-16
3.200002614479530649e+01,1.200000031003814058e+02,-3.575968653510264926e-16
3.200002632099911182e+01,1.200000031455787450e+02,-3.600461589493211936e-16
3.200002649714220126e+01,1.200000031911008591e+02,-3.624954525476158946e-16
3.200002667322413430e+01,1.200000032369475917e+02,-3.649447461459105956e-16
3.200002684924448459e+01,1.200000032831188292e+02,-3.673940397442052966e-16
3.200002702520282583e+01,1.200000033296144721e+02,-3.698433333424999975e-16
3.200002720109869614e+01,1.200000033764344209e+02,-3.722926269407946985e-16
3.200002737693168342e+01,1.200000034235785336e+02,-3.747419205390893995e-16
3.200002755270134713e+01,1.200000034710466963e+02,-3.771912141373841005e-16
3.200002772840725385e+01,1.200000035188388239e+02,-3.796405077356788015e-16
3.200002790404897723e+01,1.200000035669547458e+02,-3.820898013339735025e-16
3.200002807962607676e+01,1.200000036153943768e+02,-3.845390949322682035e-16
3.200002825513811189e+01,1.200000036641576031e+02,-3.869883885305629045e-16
3.200002843058466340e+01,1.200000037132442969e+02,-3.894376821288576055e-16
3.200002860596529075e+01,1.200000037626543161e+02,-3.918869757271523065e-16
3.200002878127956762e+01,1.200000038123875612e+02,-3.943362693254470075e-16
3.200002895652705348e+01,1.200000038624439185e+02,-3.967855629237417084e-16
3.200002913170731489e+01,1.200000039128232459e+02,-3.992348565220364094e-16
3.200002930681993263e+01,1.200000039635254012e+02,-4.016841501203311104e-16
3.200002948186445906e+01,1.200000040145503135e+02,-4.041334437186258114e-16
3.200002965684047496e+01,1.200000040658977980e+02,-4.065827373169205124e-16
3.200002983174753979e+01,1.200000041175677552e+02,-4.090320309152152134e-16
3.200003000658522012e+01,1.200000041695600856e+02,-4.114813245135099144e-16
3.200003018135310384e+01,1.200000042218746046e+02,-4.139306181118046154e-16
3.200003035605073620e+01,1.200000042745112125e+02,-4.163799117100993164e-16
3.200003053067769088e+01,1.200000043274697958e+02,-4.188292053083940174e-16
3.200003070523354864e+01,1.200000043807502124e+02,-4.212784989066887184e-16
3.200003087971786897e+01,1.200000044343523058e+02,-4.237277925049834193e-16
3.200003105413022553e+01,1.200000044882759624e+02,-4.261770861032781203e-16
3.200003122847018489e+01,1.200000045425210544e+02,-4.286263797015728213e-16
3.200003140273732072e+01,1.200000045970874396e+02,-4.310756732998675223e-16
3.200003157693119960e+01,1.200000046519749901e+02,-4.335249668981622233e-16
3.200003175105139519e+01,1.200000047071835638e+02,-4.359742604964569243e-16
3.200003192509747407e+01,1.200000047627130471e+02,-4.384235540947516253e-16
3.200003209906900281e+01,1.200000048185632551e+02,-4.408728476930463263e-16
3.200003227296556219e+01,1.200000048747340884e+02,-4.433221412913410273e-16
3.200003244678671876e+01,1.200000049312254049e+02,-4.457714348896357776e-16
3.200003262053204622e+01,1.200000049880370483e+02,-4.482207284879305279e-16
3.200003279420110402e+01,1.200000050451689049e+02,-4.506700220862252782e-16
3.200003296779348716e+01,1.200000051026208041e+02,-4.531193156845200284e-16
3.200003314130874088e+01,1.200000051603926323e+02,-4.555686092828147787e-16
3.200003331474645307e+01,1.200000052184842190e+02,-4.580179028811095290e-16
3.200003348810619741e+01,1.200000052768954362e+02,-4.604671964794042793e-16
3.200003366138753336e+01,1.200000053356261418e+02,-4.629164900776990296e-16
3.200003383459004169e+01,1.200000053946761795e+02,-4.653657836759937799e-16
3.200003400771328899e+01,1.200000054540454357e+02,-4.678150772742885302e-16
3.200003418075686312e+01,1.200000055137337114e+02,-4.702643708725832805e-16
3.200003435372032357e+01,1.200000055737409070e+02,-4.727136644708780308e-16
3.200003452660324399e+01,1.200000056340668380e+02,-4.751629580691727811e-16
3.200003469940520517e+01,1.200000056947113762e+02,-4.776122516674675314e-16
3.200003487212577369e+01,1.200000057556743656e+02,-4.800615452657622817e-16
3.200003504476452321e+01,1.200000058169556638e+02,-4.825108388640570320e-16
3.200003521732103451e+01,1.200000058785551147e+02,-4.849601324623517823e-16
3.200003538979488127e+01,1.200000059404725761e+02,-4.874094260606465326e-16
3.200003556218563006e+01,1.200000060027078632e+02,-4.898587196589412829e-16
3.200003573449285454e+01,1.200000060652608482e+02,-4.923080132572360332e-16
3.200003590671614973e+01,1.200000061281313890e+02,-4.947573068555307835e-16
3.200003607885506085e+01,1.200000061913193150e+02,-4.972066004538255338e-16
3.200003625090919002e+01,1.200000062548244557e+02,-4.996558940521202840e-16
3.200003642287809669e+01,1.200000063186466548e+02,-5.021051876504150343e-16
3.200003659476136164e+01,1.200000063827857701e+02,-5.045544812487097846e-16
3.200003676655855855e+01,1.200000064472416739e+02,-5.070037748470045349e-16
3.200003693826926110e+01,1.200000065120141528e+02,-5.094530684452992852e-16
3.200003710989305716e+01,1.200000065771030648e+02,-5.119023620435940355e-16
3.200003728142951331e+01,1.200000066425082679e+02,-5.143516556418887858e-16
3.200003745287821033e+01,1.200000067082295772e+02,-5.168009492401835361e-16
3.200003762423871478e+01,1.200000067742668364e+02,-5.192502428384782864e-16
3.200003779551061456e+01,1.200000068406199034e+02,-5.216995364367730367e-16
3.200003796669349754e+01,1.200000069072885793e+02,-5.241488300350677870e-16
3.200003813778691608e+01,1.200000069742727220e+02,-5.265981236333625373e-16
3.200003830879046518e+01,1.200000070415721609e+02,-5.290474172316572876e-16
3.200003847970372561e+01,1.200000071091867255e+02,-5.314967108299520379e-16
3.200003865052625684e+01,1.200000071771162595e+02,-5.339460044282467882e-16
3.200003882125765386e+01,1.200000072453605782e+02,-5.363952980265415385e-16
3.200003899189749035e+01,1.200000073139195393e+02,-5.388445916248362888e-16
3.200003916244534707e+01,1.200000073827929583e+02,-5.412938852231310391e-16
3.200003933290079772e+01,1.200000074519806503e+02,-5.437431788214257894e-16
3.200003950326343016e+01,1.200000075214824733e+02,-5.461924724197205396e-16
3.200003967353281809e+01,1.200000075912982425e+02,-5.486417660180152899e-16
3.200003984370854226e+01,1.200000076614277873e+02,-5.510910596163100402e-16
3.200004001379018348e+01,1.200000077318709231e+02,-5.535403532146047905e-16
3.200004018377732251e+01,1.200000078026274934e+02,-5.559896468128995408e-16
3.200004035366954014e+01,1.200000078736973279e+02,-5.584389404111942911e-16
3.200004052346641714e+01,1.200000079450802133e+02,-5.608882340094890414e-16
3.200004069316752719e+01,1.200000080167759933e+02,-5.633375276077837917e-16
3.200004086277246529e+01,1.200000080887845257e+02,-5.657868212060785420e-16
3.200004103228080510e+01,1.200000081611055975e+02,-5.682361148043732923e-16
3.200004120169212740e+01,1.200000082337390381e+02,-5.706854084026680426e-16
3.200004137100602009e+01,1.200000083066846770e+02,-5.731347020009627929e-16
3.200004154022205682e+01,1.200000083799423152e+02,-5.755839955992575432e-16
3.200004170933982550e+01,1.200000084535117821e+02,-5.780332891975522935e-16
3.200004187835891400e+01,1.200000085273928789e+02,-5.804825827958470438e-16
3.200004204727888890e+01,1.200000086015854492e+02,-5.829318763941417941e-16
3.200004221609935229e+01,1.200000086760893083e+02,-5.853811699924365444e-16
3.200004238481987073e+01,1.200000087509042714e+02,-5.878304635907312947e-16
3.200004255344004633e+01,1.200000088260301538e+02,-5.902797571890260450e-16
3.200004272195944566e+01,1.200000089014667282e+02,-5.927290507873207952e-16
3.200004289037766370e+01,1.200000089772138665e+02,-5.951783443856155455e-16
3.200004305869428123e+01,1.200000090532713699e+02,-5.976276379839102958e-16
3.200004322690887903e+01,1.200000091296390252e+02,-6.000769315822050461e-16
3.200004339502104500e+01,1.200000092063166477e+02,-6.025262251804997964e-16
3.200004356303036701e+01,1.200000092833040668e+02,-6.049755187787945467e-16
3.200004373093644006e+01,1.200000093606011120e+02,-6.074248123770892970e-16
3.200004389873882360e+01,1.200000094382075417e+02,-6.098741059753840473e-16
3.200004406643712684e+01,1.200000095161231854e+02,-6.123233995736787976e-16
3.200004423403093057e+01,1.200000095943478584e+02,-6.147726931719735479e-16
3.200004440151980845e+01,1.200000096728813617e+02,-6.172219867702682982e-16
3.200004456890336257e+01,1.200000097517235105e+02,-6.196712803685630485e-16
3.200004473618117373e+01,1.200000098308740917e+02,-6.221205739668577988e-16
3.200004490335283691e+01,1.200000099103329489e+02,-6.245698675651525491e-16
3.200004507041792579e+01,1.200000099900998265e+02,-6.270191611634472994e-16
3.200004523737603535e+01,1.200000100701745680e+02,-6.294684547617420497e-16
3.200004540422676058e+01,1.200000101505569603e+02,-6.319177483600368000e-16
3.200004557096967517e+01,1.200000102312468329e+02,-6.343670419583315503e-16
3.200004573760437410e+01,1.200000103122439441e+02,-6.368163355566263006e-16
3.200004590413045236e+01,1.200000103935481235e+02,-6.392656291549210508e-16
