ref_vel_x (m/s),ref_vel_y (m/s),ref_vel_z (m/s)
2.000000000000000000e+00,-1.224646799147353207e-16,2.449293598294706414e-16
1.999999975325988943e+00,3.141592640669979217e-04,2.449293598294706414e-16
1.999999792491571116e+00,9.110618380319711936e-04,2.449293598294706414e-16
1.999999223457108677e+00,1.762433250562900604e-03,2.449293598294706414e-16
1.999997979583729046e+00,2.842826234951037478e-03,2.449293598294706414e-16
1.999995737137653995e+00,4.129337866002651819e-03,2.449293598294706414e-16
1.999992156190189663e+00,5.601354989306462501e-03,2.449293598294706414e-16
1.999986894380087366e+00,7.240325123427083370e-03,2.449293598294706414e-16
1.999979616701511809e+00,9.029550291874325826e-03,2.449293598294706414e-16
1.999970002237858591e+00,1.095400149258248142e-02,2.449293598294706414e-16
1.999957748567388727e+00,1.300015173992678970e-02,2.449293598294706414e-16
1.999942574411505358e+00,1.515582581979892096e-02,2.449293598294706414e-16
1.999924220972828959e+00,1.741006508382707610e-02,2.449293598294706414e-16
1.999902452311813850e+00,1.975300577617293551e-02,2.449293598294706414e-16
1.999877055032492246e+00,2.217576953717630486e-02,2.449293598294706414e-16
1.999847837486012025e+00,2.467036486395898093e-02,2.449293598294706414e-16
1.999814628651695569e+00,2.722959843040136108e-02,2.449293598294706414e-16
1.999777276816799843e+00,2.984699527898692153e-02,2.449293598294706414e-16
1.999735648145890554e+00,3.251672699604495759e-02,2.449293598294706414e-16
1.999689625207070165e+00,3.523354707103739519e-02,2.449293598294706414e-16
1.999639105503894010e+00,3.799273272069594864e-02,2.449293598294706414e-16
1.999584000047541332e+00,4.079003253092847170e-02,2.449293598294706414e-16
1.999524231992864776e+00,4.362161933427730065e-02,2.449293598294706414e-16
1.999459735353581680e+00,4.648404779906220585e-02,2.449293598294706414e-16
1.999390453805565793e+00,4.937421625882918580e-02,2.449293598294706414e-16
1.999316339582498436e+00,5.228933235794331474e-02,2.449293598294706414e-16
1.999237352464688700e+00,5.522688213164170246e-02,2.449293598294706414e-16
1.999153458859398214e+00,5.818460217707672327e-02,2.449293598294706414e-16
1.999064630969282996e+00,6.116045460625782471e-02,2.449293598294706414e-16
1.998970846044412664e+00,6.415260450273732595e-02,2.449293598294706414e-16
1.998872085712616986e+00,6.715939963171438376e-02,2.449293598294706414e-16
1.998768335382526962e+00,7.017935217827436789e-02,2.449293598294706414e-16
1.998659583713535026e+00,7.321112231101647994e-02,2.449293598294706414e-16
1.998545822146934103e+00,7.625350338859730737e-02,2.449293598294706414e-16
1.998427044492656623e+00,7.930540864496740672e-02,2.449293598294706414e-16
1.998303246566281333e+00,8.236585920549670259e-02,2.449293598294706414e-16
1.998174425871277693e+00,8.543397330096347275e-02,2.449293598294706414e-16
1.998040581321790077e+00,8.850895655967747078e-02,2.449293598294706414e-16
1.997901713001617008e+00,9.159009326998199252e-02,2.449293598294706414e-16
1.997757821955390645e+00,9.467673851614297198e-02,2.449293598294706414e-16
1.997608910008309868e+00,9.776831110033529226e-02,2.449293598294706414e-16
1.997454979611118286e+00,1.008642871721564943e-01,2.449293598294706414e-16
1.997296033707326002e+00,1.039641944949527691e-01,2.449293598294706414e-16
1.997132075619987290e+00,1.070676072853084387e-01,2.449293598294706414e-16
1.996963108955611910e+00,1.101741415684130559e-01,2.449293598294706414e-16
1.996789137523049096e+00,1.132834509977419940e-01,2.449293598294706414e-16
1.996610165265421344e+00,1.163952230926462439e-01,2.449293598294706414e-16
1.996426196203395120e+00,1.195091758520762520e-01,2.449293598294706414e-16
1.996237234388273496e+00,1.226250547068467589e-01,2.449293598294706414e-16
1.996043283863569995e+00,1.257426297766022216e-01,2.449293598294706414e-16
1.995844348633885934e+00,1.288616934010252124e-01,2.449293598294706414e-16
1.995640432640048978e+00,1.319820579178794251e-01,2.449293598294706414e-16
1.995431539739605631e+00,1.351035536632065881e-01,2.449293598294706414e-16
1.995217673691868088e+00,1.382260271714766675e-01,2.449293598294706414e-16
1.994998838146821551e+00,1.413493395556990329e-01,2.449293598294706414e-16
1.994775036637282506e+00,1.444733650495063360e-01,2.449293598294706414e-16
1.994546272573787471e+00,1.475979896950188330e-01,2.449293598294706414e-16
1.994312549241747945e+00,1.507231101619146141e-01,2.449293598294706414e-16
1.994073869800485177e+00,1.538486326845894536e-01,2.449293598294706414e-16
1.993830237283798379e+00,1.569744721056003378e-01,2.449293598294706414e-16
1.993581654601779274e+00,1.601005510147663347e-01,2.449293598294706414e-16
1.993328124543619406e+00,1.632267989743625969e-01,2.449293598294706414e-16
1.993069649781199271e+00,1.663531518218015204e-01,2.449293598294706414e-16
1.992806232873277850e+00,1.694795510420499807e-01,2.449293598294706414e-16
1.992537876270126684e+00,1.726059432028155816e-01,2.449293598294706414e-16
1.992264582318481914e+00,1.757322794462201077e-01,2.449293598294706414e-16
1.991986353266706811e+00,1.788585150313145300e-01,2.449293598294706414e-16
1.991703191270069118e+00,1.819846089223539909e-01,2.449293598294706414e-16
1.991415098396067895e+00,1.851105234182513493e-01,2.449293598294706414e-16
1.991122076629739723e+00,1.882362238190970760e-01,2.449293598294706414e-16
1.990824127878901173e+00,1.913616781260358279e-01,2.449293598294706414e-16
1.990521253979286698e+00,1.944868567711653118e-01,2.449293598294706414e-16
1.990213456699549077e+00,1.976117323744529253e-01,2.449293598294706414e-16
1.989900737746099768e+00,2.007362795249718890e-01,2.449293598294706414e-16
1.989583098767773839e+00,2.038604745840210397e-01,2.449293598294706414e-16
1.989260541360301726e+00,2.069842955079417290e-01,2.449293598294706414e-16
1.988933067070583816e+00,2.101077216886618471e-01,2.449293598294706414e-16
1.988600677400761407e+00,2.132307338101920857e-01,2.449293598294706414e-16
1.988263373812080959e+00,2.163533137194828537e-01,2.449293598294706414e-16
1.987921157728555599e+00,2.194754443101991359e-01,2.449293598294706414e-16
1.987574030540420811e+00,2.225971094181291021e-01,2.449293598294706414e-16
1.987221993607394266e+00,2.257182937270557355e-01,2.449293598294706414e-16
1.986865048261740707e+00,2.288389826840491192e-01,2.449293598294706414e-16
1.986503195811149647e+00,2.319591624232364147e-01,2.449293598294706414e-16
1.986136437541432320e+00,2.350788196971983768e-01,2.449293598294706414e-16
1.985764774719046555e+00,2.381979418152355976e-01,2.449293598294706414e-16
1.985388208593453996e+00,2.413165165878109475e-01,2.449293598294706414e-16
1.985006740399322345e+00,2.444345322765532069e-01,2.449293598294706414e-16
1.984620371358574831e+00,2.475519775492670271e-01,2.449293598294706414e-16
1.984229102682300239e+00,2.506688414394449560e-01,2.449293598294706414e-16
1.983832935572528156e+00,2.537851133098344425e-01,2.449293598294706414e-16
1.983431871223876986e+00,2.569007828196510079e-01,2.449293598294706414e-16
1.983025910825084948e+00,2.600158398950760952e-01,2.449293598294706414e-16
1.982615055560427830e+00,2.631302747027069455e-01,2.449293598294706414e-16
1.982199306611032386e+00,2.662440776256680963e-01,2.449293598294706414e-16
1.981778665156093133e+00,2.693572392421136885e-01,2.449293598294706414e-16
1.981353132373997017e+00,2.724697503058831072e-01,2.449293598294706414e-16
1.980922709443360796e+00,2.755816017290963482e-01,2.449293598294706414e-16
1.980487397543992278e+00,2.786927845664907699e-01,2.449293598294706414e-16
1.980047197857774943e+00,2.818032900013288100e-01,2.449293598294706414e-16
1.979602111569484624e+00,2.849131093327192943e-01,2.449293598294706414e-16
1.979152139867541349e+00,2.880222339642063978e-01,2.449293598294706414e-16
1.978697283944703900e+00,2.911306553935055774e-01,2.449293598294706414e-16
1.978237544998706188e+00,2.942383652032684038e-01,2.449293598294706414e-16
1.977772924232845675e+00,2.973453550527717648e-01,2.449293598294706414e-16
1.977303422856521609e+00,3.004516166704438440e-01,2.449293598294706414e-16
1.976829042085733068e+00,3.035571418471366689e-01,2.449293598294706414e-16
1.976349783143532823e+00,3.066619224300776159e-01,2.449293598294706414e-16
1.975865647260446112e+00,3.097659503174259310e-01,2.449293598294706414e-16
1.975376635674855663e+00,3.128692174533765358e-01,2.449293598294706414e-16
1.974882749633352530e+00,3.159717158237563273e-01,2.449293598294706414e-16
1.974383990391059829e+00,3.190734374520628469e-01,2.449293598294706414e-16
1.973880359211927837e+00,3.221743743959020745e-01,2.449293598294706414e-16
1.973371857369005777e+00,3.252745187437839358e-01,2.449293598294706414e-16
1.972858486144689838e+00,3.283738626122407744e-01,2.449293598294706414e-16
1.972340246830949662e+00,3.314723981432362576e-01,2.449293598294706414e-16
1.971817140729537288e+00,3.345701175018359619e-01,2.449293598294706414e-16
1.971289169152175225e+00,3.376670128741131038e-01,2.449293598294706414e-16
1.970756333420732309e+00,3.407630764652646027e-01,2.449293598294706414e-16
1.970218634867380025e+00,3.438583004979192670e-01,2.449293598294706414e-16
1.969676074834739499e+00,3.469526772106162338e-01,2.449293598294706414e-16
1.969128654676011392e+00,3.500461988564389504e-01,2.449293598294706414e-16
1.968576375755098251e+00,3.531388577017857688e-01,2.449293598294706414e-16
1.968019239446713753e+00,3.562306460252666063e-01,2.449293598294706414e-16
1.967457247136481735e+00,3.593215561167136252e-01,2.449293598294706414e-16
1.966890400221029678e+00,3.624115802762898908e-01,2.449293598294706414e-16
1.966318700108069306e+00,3.655007108136904548e-01,2.449293598294706414e-16
1.965742148216473195e+00,3.685889400474264832e-01,2.449293598294706414e-16
1.965160745976343382e+00,3.716762603041810498e-01,2.449293598294706414e-16
1.964574494829073537e+00,3.747626639182329300e-01,2.449293598294706414e-16
1.963983396227404921e+00,3.778481432309385712e-01,2.449293598294706414e-16
1.963387451635478564e+00,3.809326905902689631e-01,2.449293598294706414e-16
1.962786662528880344e+00,3.840162983503941363e-01,2.449293598294706414e-16
1.962181030394684722e+00,3.870989588713114604e-01,2.449293598294706414e-16
1.961570556731491166e+00,3.901806645185127431e-01,2.449293598294706414e-16
1.960955243049458785e+00,3.932614076626871902e-01,2.449293598294706414e-16
1.960335090870337860e+00,3.963411806794550074e-01,2.449293598294706414e-16
1.959710101727496934e+00,3.994199759491302570e-01,2.449293598294706414e-16
1.959080277165947903e+00,4.024977858565094713e-01,2.449293598294706414e-16
1.958445618742368888e+00,4.055746027906828033e-01,2.449293598294706414e-16
1.957806128025123105e+00,4.086504191448663281e-01,2.449293598294706414e-16
1.957161806594278630e+00,4.117252273162523846e-01,2.449293598294706414e-16
1.956512656041622167e+00,4.147990197058780693e-01,2.449293598294706414e-16
1.955858677970674586e+00,4.178717887185075530e-01,2.449293598294706414e-16
1.955199873996703364e+00,4.209435267625282195e-01,2.449293598294706414e-16
1.954536245746732792e+00,4.240142262498596826e-01,2.449293598294706414e-16
1.953867794859554197e+00,4.270838795958736833e-01,2.449293598294706414e-16
1.953194522985734372e+00,4.301524792193228142e-01,2.449293598294706414e-16
1.952516431787621576e+00,4.332200175422805111e-01,2.449293598294706414e-16
1.951833522939353971e+00,4.362864869900862086e-01,2.449293598294706414e-16
1.951145798126862285e+00,4.393518799912998762e-01,2.449293598294706414e-16
1.950453259047876253e+00,4.424161889776613843e-01,2.449293598294706414e-16
1.949755907411927280e+00,4.454794063840575302e-01,2.449293598294706414e-16
1.949053744940350441e+00,4.485415246484934504e-01,2.449293598294706414e-16
1.948346773366288698e+00,4.516025362120675846e-01,2.449293598294706414e-16
1.947634994434692013e+00,4.546624335189536348e-01,2.449293598294706414e-16
1.946918409902320457e+00,4.577212090163833014e-01,2.449293598294706414e-16
1.946197021537743543e+00,4.607788551546350697e-01,2.449293598294706414e-16
1.945470831121339783e+00,4.638353643870241627e-01,2.449293598294706414e-16
1.944739840445298018e+00,4.668907291698958795e-01,2.449293598294706414e-16
1.944004051313614756e+00,4.699449419626225977e-01,2.449293598294706414e-16
1.943263465542094171e+00,4.729979952276013866e-01,2.449293598294706414e-16
1.942518084958346103e+00,4.760498814302544512e-01,2.449293598294706414e-16
1.941767911401784730e+00,4.791005930390309087e-01,2.449293598294706414e-16
1.941012946723625232e+00,4.821501225254115619e-01,2.449293598294706414e-16
1.940253192786883352e+00,4.851984623639129524e-01,2.449293598294706414e-16
1.939488651466371394e+00,4.882456050320944652e-01,2.449293598294706414e-16
1.938719324648696229e+00,4.912915430105667669e-01,2.449293598294706414e-16
1.937945214232255298e+00,4.943362687829993551e-01,2.449293598294706414e-16
1.937166322127235052e+00,4.973797748361318827e-01,2.449293598294706414e-16
1.936382650255606297e+00,5.004220536597827618e-01,2.449293598294706414e-16
1.935594200551120858e+00,5.034630977468631530e-01,2.449293598294706414e-16
1.934800974959308695e+00,5.065028995933871236e-01,2.449293598294706414e-16
1.934002975437473459e+00,5.095414516984849707e-01,2.449293598294706414e-16
1.933200203954688723e+00,5.125787465644177088e-01,2.449293598294706414e-16
1.932392662491794422e+00,5.156147766965893942e-01,2.449293598294706414e-16
1.931580353041391973e+00,5.186495346035621123e-01,2.449293598294706414e-16
1.930763277607840722e+00,5.216830127970706332e-01,2.449293598294706414e-16
1.929941438207253057e+00,5.247152037920377321e-01,2.449293598294706414e-16
1.929114836867490856e+00,5.277461001065891777e-01,2.449293598294706414e-16
1.928283475628160160e+00,5.307756942620704965e-01,2.449293598294706414e-16
1.927447356540606949e+00,5.338039787830610727e-01,2.449293598294706414e-16
1.926606481667912485e+00,5.368309461973923558e-01,2.449293598294706414e-16
1.925760853084889090e+00,5.398565890361629593e-01,2.449293598294706414e-16
1.924910472878074374e+00,5.428808998337557590e-01,2.449293598294706414e-16
1.924055343145727015e+00,5.459038711278555445e-01,2.449293598294706414e-16
1.923195465997822540e+00,5.489254954594643410e-01,2.449293598294706414e-16
1.922330843556046664e+00,5.519457653729199498e-01,2.449293598294706414e-16
1.921461477953791963e+00,5.549646734159118244e-01,2.449293598294706414e-16
1.920587371336151872e+00,5.579822121394999446e-01,2.449293598294706414e-16
1.919708525859916248e+00,5.609983740981312472e-01,2.449293598294706414e-16
1.918824943693565821e+00,5.640131518496570573e-01,2.449293598294706414e-16
1.917936627017266416e+00,5.670265379553510732e-01,2.449293598294706414e-16
1.917043578022864958e+00,5.700385249799275744e-01,2.449293598294706414e-16
1.916145798913883702e+00,5.730491054915574090e-01,2.449293598294706414e-16
1.915243291905514678e+00,5.760582720618876440e-01,2.449293598294706414e-16
1.914336059224613917e+00,5.790660172660584415e-01,2.449293598294706414e-16
1.913424103109697683e+00,5.820723336827213767e-01,2.449293598294706414e-16
1.912507425810934913e+00,5.850772138940565359e-01,2.449293598294706414e-16
1.911586029590143454e+00,5.880806504857913897e-01,2.449293598294706414e-16
1.910659916720783613e+00,5.910826360472181129e-01,2.449293598294706414e-16
1.909729089487953280e+00,5.940831631712119032e-01,2.449293598294706414e-16
1.908793550188381705e+00,5.970822244542488555e-01,2.449293598294706414e-16
1.907853301130424173e+00,6.000798124964239477e-01,2.449293598294706414e-16
1.906908344634056229e+00,6.030759199014694705e-01,2.449293598294706414e-16
1.905958683030868350e+00,6.060705392767724575e-01,2.449293598294706414e-16
1.905004318664059948e+00,6.090636632333934486e-01,2.449293598294706414e-16
1.904045253888433598e+00,6.120552843860839198e-01,2.449293598294706414e-16
1.903081491070389486e+00,6.150453953533047136e-01,2.449293598294706414e-16
1.902113032587919195e+00,6.180339887572441349e-01,2.449293598294706414e-16
1.901139880830600370e+00,6.210210572238354931e-01,2.449293598294706414e-16
1.900162038199590731e+00,6.240065933827761979e-01,2.449293598294706414e-16
1.899179507107621401e+00,6.269905898675453004e-01,2.449293598294706414e-16
1.898192289978992253e+00,6.299730393154212571e-01,2.449293598294706414e-16
1.897200389249565244e+00,6.329539343675004703e-01,2.449293598294706414e-16
1.896203807366758198e+00,6.359332676687152741e-01,2.449293598294706414e-16
1.895202546789539477e+00,6.389110318678521416e-01,2.449293598294706414e-16
1.894196609988421098e+00,6.418872196175693379e-01,2.449293598294706414e-16
1.893185999445453183e+00,6.448618235744154603e-01,2.449293598294706414e-16
1.892170717654217960e+00,6.478348363988475356e-01,2.449293598294706414e-16
1.891150767119823328e+00,6.508062507552491160e-01,2.449293598294706414e-16
1.890126150358896417e+00,6.537760593119470443e-01,2.449293598294706414e-16
1.889096869899578257e+00,6.567442547412319920e-01,2.449293598294706414e-16
1.888062928281516450e+00,6.597108297193741144e-01,2.449293598294706414e-16
1.887024328055860289e+00,6.626757769266424791e-01,2.449293598294706414e-16
1.885981071785252539e+00,6.656390890473228295e-01,2.449293598294706414e-16
1.884933162043825439e+00,6.686007587697354593e-01,2.449293598294706414e-16
1.883880601417192047e+00,6.715607787862529765e-01,2.449293598294706414e-16
1.882823392502442017e+00,6.745191417933189548e-01,2.449293598294706414e-16
1.881761537908133164e+00,6.774758404914655863e-01,2.449293598294706414e-16
1.880695040254286576e+00,6.804308675853317778e-01,2.449293598294706414e-16
1.879623902172379735e+00,6.833842157836806930e-01,2.449293598294706414e-16
1.878548126305339405e+00,6.863358777994185145e-01,2.449293598294706414e-16
1.877467715307536089e+00,6.892858463496115418e-01,2.449293598294706414e-16
1.876382671844776695e+00,6.922341141555053978e-01,2.449293598294706414e-16
1.875292998594298099e+00,6.951806739425413495e-01,2.449293598294706414e-16
1.874198698244761152e+00,6.981255184403752923e-01,2.449293598294706414e-16
1.873099773496243348e+00,7.010686403828958468e-01,2.449293598294706414e-16
1.871996227060232387e+00,7.040100325082415678e-01,2.449293598294706414e-16
1.870888061659619295e+00,7.069496875588193729e-01,2.449293598294706414e-16
1.869775280028692421e+00,7.098875982813227514e-01,2.449293598294706414e-16
1.868657884913129896e+00,7.128237574267480836e-01,2.449293598294706414e-16
1.867535879069993188e+00,7.157581577504147363e-01,2.449293598294706414e-16
1.866409265267720219e+00,7.186907920119810500e-01,2.449293598294706414e-16
1.865278046286118707e+00,7.216216529754629905e-01,2.449293598294706414e-16
1.864142224916359281e+00,7.245507334092526897e-01,2.449293598294706414e-16
1.863001803960967928e+00,7.274780260861348768e-01,2.449293598294706414e-16
1.861856786233820449e+00,7.304035237833057526e-01,2.449293598294706414e-16
1.860707174560133792e+00,7.333272192823907520e-01,2.449293598294706414e-16
1.859552971776461172e+00,7.362491053694611987e-01,2.449293598294706414e-16
1.858394180730682743e+00,7.391691748350538438e-01,2.449293598294706414e-16
1.857230804282000713e+00,7.420874204741870761e-01,2.449293598294706414e-16
1.856062845300930464e+00,7.450038350863802394e-01,2.449293598294706414e-16
1.854890306669294775e+00,7.479184114756697310e-01,2.449293598294706414e-16
1.853713191280216499e+00,7.508311424506282084e-01,2.449293598294706414e-16
1.852531502038110567e+00,7.537420208243810205e-01,2.449293598294706414e-16
1.851345241858677992e+00,7.566510394146255258e-01,2.449293598294706414e-16
1.850154413668897657e+00,7.595581910436471906e-01,2.449293598294706414e-16
1.848959020407019871e+00,7.624634685383383514e-01,2.449293598294706414e-16
1.847759065022558600e+00,7.653668647302155348e-01,2.449293598294706414e-16
1.846554550476284584e+00,7.682683724554372207e-01,2.449293598294706414e-16
1.845345479740217787e+00,7.711679845548217171e-01,2.449293598294706414e-16
1.844131855797619846e+00,7.740656938738641468e-01,2.449293598294706414e-16
1.842913681642987189e+00,7.769614932627550985e-01,2.449293598294706414e-16
1.841690960282043710e+00,7.798553755763971695e-01,2.449293598294706414e-16
1.840463694731732769e+00,7.827473336744232846e-01,2.449293598294706414e-16
