ref_gps_lat (deg),ref_gps_lon (deg),ref_gps_alt (m),ref_gps_vN (m/s),ref_gps_vE (m/s),ref_gps_vD (m/s)
3.200000000000000000e+01,1.199999999999999858e+02,0.000000000000000000e+00,4.000000000000000000e+00,-2.449293598294706414e-16,4.898587196589412829e-16
3.200000360725686477e+01,1.200000000120742101e+02,-4.898587196589413692e-17,3.999849773095450978e+00,3.466688143272876610e-02,4.898587196589412829e-16
3.200000721404805404e+01,1.200000000789535903e+02,-9.797174393178827383e-17,3.998716849585474797e+00,1.013092139995897950e-01,4.898587196589412829e-16
3.200001081919476320e+01,1.200000002226621802e+02,-1.469576158976823306e-16,3.995989931293539410e+00,1.790655438677533628e-01,4.898587196589412829e-16
3.200001442117092409e+01,1.200000004508288356e+02,-1.959434878635763504e-16,3.991499664499343680e+00,2.606346644282506175e-01,4.898587196589412829e-16
3.200001801837430548e+01,1.200000007660356260e+02,-2.449293598294703949e-16,3.985228331712245442e+00,3.434459842799640894e-01,4.898587196589412829e-16
3.200002160920336536e+01,1.200000011690790700e+02,-2.939152317953644147e-16,3.977188714413435022e+00,4.265793360471270557e-01,4.898587196589412829e-16
3.200002519206906726e+01,1.200000016601081114e+02,-3.429011037612584346e-16,3.967394093445139269e+00,5.096902071814017887e-01,4.898587196589412829e-16
3.200002876539294050e+01,1.200000022390208017e+02,-3.918869757271524544e-16,3.955854391039547835e+00,5.926348259199138990e-01,4.898587196589412829e-16
3.200003232760451510e+01,1.200000029056026420e+02,-4.408728476930464742e-16,3.942577410873954413e+00,6.753394400347325632e-01,4.898587196589412829e-16
3.200003587713995756e+01,1.200000036595750572e+02,-4.898587196589404940e-16,3.927570205062280273e+00,7.577547652816428725e-01,4.898587196589412829e-16
3.200003941244177952e+01,1.200000045006120644e+02,-5.388445916248345138e-16,3.910839879419468978e+00,8.398401261801635709e-01,4.898587196589412829e-16
3.200004293195905092e+01,1.200000054283464550e+02,-5.878304635907285336e-16,3.892393987833417945e+00,9.215579436358097842e-01,4.898587196589412829e-16
3.200004643414791161e+01,1.200000064423718698e+02,-6.368163355566225535e-16,3.872240707866716924e+00,1.002871826476279260e+00,4.898587196589412829e-16
3.200004991747216110e+01,1.200000075422437078e+02,-6.858022075225165733e-16,3.850388913592177609e+00,1.083745917679254545e+00,4.898587196589412829e-16
3.200005338040386249e+01,1.200000087274796243e+02,-7.347880794884105931e-16,3.826848203231430379e+00,1.164144677187665122e+00,4.898587196589412829e-16
3.200005682142407437e+01,1.200000099975597578e+02,-7.837739514543046129e-16,3.801628907637327526e+00,1.244032816535086239e+00,4.898587196589412829e-16
3.200006023902344765e+01,1.200000113519270570e+02,-8.327598234201986327e-16,3.774742090778323345e+00,1.323375286193032352e+00,4.898587196589412829e-16
3.200006363170290768e+01,1.200000127899874087e+02,-8.817456953860926526e-16,3.746199546839400263e+00,1.402137281174804073e+00,4.898587196589412829e-16
3.200006699797430088e+01,1.200000143111100783e+02,-9.307315673519875598e-16,3.716013795801241582e+00,1.480284252910517129e+00,4.898587196589412829e-16
3.200007033636108389e+01,1.200000159146278094e+02,-9.797174393178825657e-16,3.684198078235643603e+00,1.557781923224425435e+00,4.898587196589412829e-16
3.200007364539892762e+01,1.200000175998373351e+02,-1.028703311283777572e-15,3.650766349606433536e+00,1.634596298962320393e+00,4.898587196589412829e-16
3.200007692363637801e+01,1.200000193659993641e+02,-1.077689183249672578e-15,3.615733274189003144e+00,1.710693686760569543e+00,4.898587196589412829e-16
3.200008016963548130e+01,1.200000212123393055e+02,-1.126675055215567583e-15,3.579114218653356438e+00,1.786040707776106462e+00,4.898587196589412829e-16
3.200008338197245195e+01,1.200000231380472258e+02,-1.175660927181462589e-15,3.540925245329458182e+00,1.860604312310523811e+00,4.898587196589412829e-16
3.200008655923824108e+01,1.200000251422784885e+02,-1.224646799147357595e-15,3.501183105163877762e+00,1.934351794300877891e+00,4.898587196589412829e-16
3.200008970003920439e+01,1.200000272241539960e+02,-1.273632671113252601e-15,3.459905230373039764e+00,2.007250805663627791e+00,4.898587196589412829e-16
3.200009280299767056e+01,1.200000293827605020e+02,-1.322618543079147607e-15,3.417109726797169511e+00,2.079269370482856427e+00,4.898587196589412829e-16
3.200009586675259499e+01,1.200000316171512225e+02,-1.371604415045042613e-15,3.372815365958573786e+00,2.150375899035732008e+00,4.898587196589412829e-16
3.200009888996009266e+01,1.200000339263461058e+02,-1.420590287010937619e-15,3.327041576827869385e+00,2.220539201648718208e+00,4.898587196589412829e-16
3.200010187129410610e+01,1.200000363093322306e+02,-1.469576158976832625e-15,3.279808437301816149e+00,2.289728502378353792e+00,4.898587196589412829e-16
3.200010480944691693e+01,1.200000387650643319e+02,-1.518562030942727631e-15,3.231136665396479923e+00,2.357913452510612462e+00,4.898587196589412829e-16
3.200010770312974273e+01,1.200000412924652835e+02,-1.567547902908622636e-15,3.181047610159636108e+00,2.425064143872831313e+00,4.898587196589412829e-16
3.200011055107333391e+01,1.200000438904264684e+02,-1.616533774874517642e-15,3.129563242306369286e+00,2.491151121952428493e+00,4.898587196589412829e-16
3.200011335202848528e+01,1.200000465578083464e+02,-1.665519646840412648e-15,3.076706144581995428e+00,2.556145398816623171e+00,4.898587196589412829e-16
3.200011610476659740e+01,1.200000492934409095e+02,-1.714505518806307654e-15,3.022499501856518833e+00,2.620018465827501863e+00,4.898587196589412829e-16
3.200011880808023790e+01,1.200000520961242216e+02,-1.763491390772202660e-15,2.966967090954985675e+00,2.682742306146848499e+00,4.898587196589412829e-16
3.200012146078363173e+01,1.200000549646289301e+02,-1.812477262738097469e-15,2.910133270228180358e+00,2.744289407025256811e+00,4.898587196589412829e-16
3.200012406171322965e+01,1.200000578976968342e+02,-1.861463134703992475e-15,2.852022968868249464e+00,2.804632771870131158e+00,4.898587196589412829e-16
3.200012660972817713e+01,1.200000608940413969e+02,-1.910449006669887481e-15,2.792661675973932667e+00,2.863745932087283563e+00,4.898587196589412829e-16
3.200012910371081887e+01,1.200000639523483130e+02,-1.959434878635782486e-15,2.732075429370202535e+00,2.921602958690935115e+00,4.898587196589412829e-16
3.200013154256721037e+01,1.200000670712761064e+02,-2.008420750601677492e-15,2.670290804187213318e+00,2.978178473677023597e+00,4.898587196589412829e-16
3.200013392522760824e+01,1.200000702494567122e+02,-2.057406622567572498e-15,2.607334901203571143e+00,3.033447661154839103e+00,4.898587196589412829e-16
3.200013625064688227e+01,1.200000734854961024e+02,-2.106392494533467504e-15,2.543235334959037530e+00,3.087386278232089332e+00,4.898587196589412829e-16
3.200013851780504126e+01,1.200000767779748116e+02,-2.155378366499362510e-15,2.478020221641877185e+00,3.139970665648636583e+00,4.898587196589412829e-16
3.200014072570761670e+01,1.200000801254486333e+02,-2.204364238465257516e-15,2.411718166756170678e+00,3.191177758154229771e+00,4.898587196589412829e-16
3.200014287338616015e+01,1.200000835264493162e+02,-2.253350110431152522e-15,2.344358252574493928e+00,3.240985094625685736e+00,4.898587196589412829e-16
3.200014495989862695e+01,1.200000869794850473e+02,-2.302335982397047528e-15,2.275970025381473860e+00,3.289370827919079865e+00,4.898587196589412829e-16
3.200014698432980254e+01,1.200000904830411628e+02,-2.351321854362942534e-15,2.206583482513809091e+00,3.336313734452626356e+00,4.898587196589412829e-16
3.200014894579171454e+01,1.200000940355809433e+02,-2.400307726328837539e-15,2.136229059202447544e+00,3.381793223516042612e+00,4.898587196589412829e-16
3.200015084342398097e+01,1.200000976355461120e+02,-2.449293598294732545e-15,2.064937615222689260e+00,3.425789346302313465e+00,4.898587196589412829e-16
3.200015267639425787e+01,1.200001012813576295e+02,-2.498279470260627551e-15,1.992740421358068392e+00,3.468282804657899732e+00,4.898587196589412829e-16
3.200015444389853059e+01,1.200001049714162491e+02,-2.547265342226522557e-15,1.919669145683953193e+00,3.509254959547544850e+00,4.898587196589412829e-16
3.200015614516151174e+01,1.200001087041034395e+02,-2.596251214192417563e-15,1.845755839676882504e+00,3.548687839229971885e+00,4.898587196589412829e-16
3.200015777943698936e+01,1.200001124777819399e+02,-2.645237086158312569e-15,1.771032924155728772e+00,3.586564147140883119e+00,4.898587196589412829e-16
3.200015934600809686e+01,1.200001162907964556e+02,-2.694222958124207575e-15,1.695533175060854880e+00,3.622867269479804531e+00,4.898587196589412829e-16
3.200016084418769680e+01,1.200001201414744685e+02,-2.743208830090102581e-15,1.619289709077504247e+00,3.657581282497450292e+00,4.898587196589412829e-16
3.200016227331862950e+01,1.200001240281269475e+02,-2.792194702055997587e-15,1.542335969109726701e+00,3.690690959480400490e+00,4.898587196589412829e-16
3.200016363277403997e+01,1.200001279490490731e+02,-2.841180574021892593e-15,1.464705709611217488e+00,3.722181777430046523e+00,4.898587196589412829e-16
3.200016492195761231e+01,1.200001319025210194e+02,-2.890166445987787598e-15,1.386432981779496698e+00,3.752039923432853641e+00,4.898587196589412829e-16
3.200016614030388951e+01,1.200001358868086356e+02,-2.939152317953682604e-15,1.307552118619928816e+00,3.780252300719164626e+00,4.898587196589412829e-16
3.200016728727844395e+01,1.200001399001643136e+02,-2.988138189919577610e-15,1.228097719886132699e+00,3.806806534407873421e+00,4.898587196589412829e-16
3.200016836237818296e+01,1.200001439408275843e+02,-3.037124061885472616e-15,1.148104636903385378e+00,3.831690976934458703e+00,4.898587196589412829e-16
3.200016936513152643e+01,1.200001480070261692e+02,-3.086109933851367622e-15,1.067607957281679232e+00,3.854894713159989994e+00,4.898587196589412829e-16
3.200017029509864841e+01,1.200001520969764357e+02,-3.135095805817262628e-15,9.866429895251366267e-01,3.876407565158867641e+00,4.898587196589412829e-16
3.200017115187161920e+01,1.200001562088844480e+02,-3.184081677783157634e-15,9.052452475445326163e-01,3.896220096683199241e+00,4.898587196589412829e-16
3.200017193507463986e+01,1.200001603409465218e+02,-3.233067549749052640e-15,8.234504350797203776e-01,3.914323617301847413e+00,4.898587196589412829e-16
3.200017264436416298e+01,1.200001644913502332e+02,-3.282053421714947646e-15,7.412944300387909191e-01,3.930710186212341917e+00,4.898587196589412829e-16
3.200017327942907741e+01,1.200001686582750722e+02,-3.331039293680842651e-15,6.588132687608364568e-01,3.945372615723977905e+00,4.898587196589412829e-16
3.200017383999082199e+01,1.200001728398932528e+02,-3.380025165646737657e-15,5.760431302092213768e-01,3.958304474410573093e+00,4.898587196589412829e-16
3.200017432580352050e+01,1.200001770343706369e+02,-3.429011037612632663e-15,4.930203201022931303e-01,3.969500089931505826e+00,4.898587196589412829e-16
3.200017473665406698e+01,1.200001812398673025e+02,-3.477996909578527669e-15,4.097812549884941036e-01,3.978954551519790162e+00,4.898587196589412829e-16
3.200017507236226066e+01,1.200001854545386522e+02,-3.526982781544422675e-15,3.263624462728600406e-01,3.986663712136100823e+00,4.898587196589412829e-16
3.200017533278083448e+01,1.200001896765359675e+02,-3.575968653510317287e-15,2.428004842019110265e-01,3.992624190287800801e+00,4.898587196589412829e-16
3.200017551779558289e+01,1.200001939040073182e+02,-3.624954525476212292e-15,1.591320218139600229e-01,3.996833371512177546e+00,4.898587196589412829e-16
3.200017562732532639e+01,1.200001981350984011e+02,-3.673940397442107298e-15,7.539375886187892062e-02,3.999289409523231420e+00,4.898587196589412829e-16
3.200017566132203939e+01,1.200002023679533067e+02,-3.722926269408002304e-15,-8.377574284626019413e-03,3.999991227021517659e+00,4.898587196589412829e-16
3.200017561977080760e+01,1.200002066007153729e+02,-3.771912141373897310e-15,-9.214523275016830994e-02,3.998938516166686163e+00,4.898587196589412829e-16
3.200017550268985644e+01,1.200002108315279941e+02,-3.820898013339792316e-15,-1.758724732711979544e-01,3.996131738712510373e+00,4.898587196589412829e-16
3.200017531013052974e+01,1.200002150585353320e+02,-3.869883885305687322e-15,-2.595225703128112849e-01,3.991572125804346616e+00,4.898587196589412829e-16
3.200017504217730391e+01,1.200002192798833391e+02,-3.918869757271582328e-15,-3.430588321777842675e-01,3.985261677439113193e+00,4.898587196589412829e-16
3.200017469894770983e+01,1.200002234937203553e+02,-3.967855629237477334e-15,-4.264446171007637010e-01,3.977203161588025004e+00,4.898587196589412829e-16
3.200017428059229019e+01,1.200002276981980600e+02,-4.016841501203372340e-15,-5.096433493205563270e-01,3.967400112982471416e+00,4.898587196589412829e-16
3.200017378729456397e+01,1.200002318914722110e+02,-4.065827373169267345e-15,-5.926185351234668497e-01,3.955856831563563603e+00,4.898587196589412829e-16
3.200017321927089142e+01,1.200002360717034975e+02,-4.114813245135162351e-15,-6.753337788506464934e-01,3.942578380596041487e+00,4.898587196589412829e-16
3.200017257677044569e+01,1.200002402370583638e+02,-4.163799117101057357e-15,-7.577527988624321864e-01,3.927570584447356516e+00,4.898587196589412829e-16
3.200017186007502801e+01,1.200002443857096921e+02,-4.212784989066952363e-15,-8.398394434526726959e-01,3.910840026032911698e+00,4.898587196589412829e-16
3.200017106949902512e+01,1.200002485158378107e+02,-4.261770861032847369e-15,-9.215577067060618521e-01,3.892394043928577574e+00,4.898587196589412829e-16
3.200017020538918899e+01,1.200002526256310347e+02,-4.310756732998742375e-15,-1.002871744291522704e+00,3.872240729151750216e+00,4.898587196589412829e-16
3.200016926812456575e+01,1.200002567132867028e+02,-4.359742604964637381e-15,-1.083745889184716260e+00,3.850388921612364790e+00,4.898587196589412829e-16
3.200016825811626120e+01,1.200002607770118459e+02,-4.408728476930532387e-15,-1.164144667312776882e+00,3.826848206235416328e+00,4.898587196589412829e-16
3.200016717580729875e+01,1.200002648150239537e+02,-4.457714348896427393e-15,-1.244032813114413383e+00,3.801628908756697456e+00,4.898587196589412829e-16
3.200016602167241331e+01,1.200002688255518279e+02,-4.506700220862322399e-15,-1.323375285008548730e+00,3.774742091193588056e+00,4.898587196589412829e-16
3.200016479621785237e+01,1.200002728068363211e+02,-4.555686092828217404e-15,-1.402137280764717442e+00,3.746199546992888596e+00,4.898587196589412829e-16
3.200016349998113441e+01,1.200002767571310756e+02,-4.604671964794112410e-15,-1.480284252768472530e+00,3.716013795857825652e+00,4.898587196589412829e-16
3.200016213353083572e+01,1.200002806747034043e+02,-4.653657836760007416e-15,-1.557781923175111105e+00,3.684198078256494924e+00,4.898587196589412829e-16
3.200016069746632041e+01,1.200002845578349167e+02,-4.702643708725902422e-15,-1.634596298945071524e+00,3.650766349614156692e+00,4.898587196589412829e-16
3.200015919241749884e+01,1.200002884048223279e+02,-4.751629580691797428e-15,-1.710693686754401810e+00,3.615733274191921698e+00,4.898587196589412829e-16
3.200015761904454337e+01,1.200002922139782271e+02,-4.800615452657692434e-15,-1.786040707773766556e+00,3.579114218654523949e+00,4.898587196589412829e-16
3.200015597803756862e+01,1.200002959836317871e+02,-4.849601324623587440e-15,-1.860604312309504627e+00,3.540925245329993754e+00,4.898587196589412829e-16
3.200015427011638991e+01,1.200002997121295039e+02,-4.898587196589482446e-15,-1.934351794300316341e+00,3.501183105164188181e+00,4.898587196589412829e-16
3.200015249603016088e+01,1.200003033978359639e+02,-4.947573068555377452e-15,-2.007250805663223225e+00,3.459905230373274243e+00,4.898587196589412829e-16
3.200015065655703239e+01,1.200003070391344409e+02,-4.996558940521272457e-15,-2.079269370482507373e+00,3.417109726797381786e+00,4.898587196589412829e-16
3.200014875250387547e+01,1.200003106344278052e+02,-5.045544812487167463e-15,-2.150375899035402494e+00,3.372815365958783840e+00,4.898587196589412829e-16
3.200014678470586915e+01,1.200003141821390074e+02,-5.094530684453062469e-15,-2.220539201648392691e+00,3.327041576828086100e+00,4.898587196589412829e-16
3.200014475402615233e+01,1.200003176807119019e+02,-5.143516556418957475e-15,-2.289728502378033159e+00,3.279808437302039970e+00,4.898587196589412829e-16
3.200014266135544716e+01,1.200003211286119296e+02,-5.192502428384852481e-15,-2.357913452510296715e+00,3.231136665396710406e+00,4.898587196589412829e-16
3.200014050761166828e+01,1.200003245243266718e+02,-5.241488300350747487e-15,-2.425064143872520450e+00,3.181047610159872807e+00,4.898587196589412829e-16
3.200013829373952490e+01,1.200003278663666890e+02,-5.290474172316642493e-15,-2.491151121952122516e+00,3.129563242306613091e+00,4.898587196589412829e-16
3.200013602071008023e+01,1.200003311532660462e+02,-5.339460044282537499e-15,-2.556145398816322523e+00,3.076706144582245006e+00,4.898587196589412829e-16
3.200013368952037496e+01,1.200003343835830236e+02,-5.388445916248432505e-15,-2.620018465827206100e+00,3.022499501856775073e+00,4.898587196589412829e-16
3.200013130119293692e+01,1.200003375559006571e+02,-5.437431788214327511e-15,-2.682742306146558064e+00,2.966967090955247688e+00,4.898587196589412829e-16
3.200012885677536900e+01,1.200003406688275049e+02,-5.486417660180222516e-15,-2.744289407024972149e+00,2.910133270228448588e+00,4.898587196589412829e-16
3.200012635733987310e+01,1.200003437209981030e+02,-5.535403532146117522e-15,-2.804632771869852270e+00,2.852022968868523911e+00,4.898587196589412829e-16
3.200012380398278822e+01,1.200003467110736892e+02,-5.584389404112012528e-15,-2.863745932087010893e+00,2.792661675974212443e+00,4.898587196589412829e-16
3.200012119782409314e+01,1.200003496377427297e+02,-5.633375276077907534e-15,-2.921602958690667773e+00,2.732075429370488084e+00,4.898587196589412829e-16
3.200011854000694456e+01,1.200003524997214583e+02,-5.682361148043802540e-15,-2.978178473676762472e+00,2.670290804187504197e+00,4.898587196589412829e-16
3.200011583169713703e+01,1.200003552957545594e+02,-5.731347020009697546e-15,-3.033447661154585084e+00,2.607334901203866462e+00,4.898587196589412829e-16
3.200011307408262695e+01,1.200003580246155650e+02,-5.780332891975592552e-15,-3.087386278231841974e+00,2.543235334959338179e+00,4.898587196589412829e-16
3.200011026837300676e+01,1.200003606851075233e+02,-5.829318763941487558e-15,-3.139970665648395443e+00,2.478020221642182719e+00,4.898587196589412829e-16
3.200010741579894358e+01,1.200003632760634673e+02,-5.878304635907382564e-15,-3.191177758153995292e+00,2.411718166756481097e+00,4.898587196589412829e-16
3.200010451761167474e+01,1.200003657963469124e+02,-5.927290507873277569e-15,-3.240985094625457474e+00,2.344358252574809676e+00,4.898587196589412829e-16
3.200010157508243225e+01,1.200003682448523818e+02,-5.976276379839172575e-15,-3.289370827918858264e+00,2.275970025381794049e+00,4.898587196589412829e-16
3.200009858950191699e+01,1.200003706205058904e+02,-6.025262251805067581e-15,-3.336313734452411861e+00,2.206583482514133721e+00,4.898587196589412829e-16
3.200009556217970186e+01,1.200003729222653988e+02,-6.074248123770962587e-15,-3.381793223515834779e+00,2.136229059202776615e+00,4.898587196589412829e-16
3.200009249444366333e+01,1.200003751491212682e+02,-6.123233995736857593e-15,-3.425789346302112737e+00,2.064937615223022771e+00,4.898587196589412829e-16
3.200008938763942012e+01,1.200003773000967584e+02,-6.172219867702752599e-15,-3.468282804657706109e+00,1.992740421358405900e+00,4.898587196589412829e-16
3.200008624312971506e+01,1.200003793742483538e+02,-6.221205739668647605e-15,-3.509254959547358332e+00,1.919669145684294698e+00,4.898587196589412829e-16
3.200008306229383237e+01,1.200003813706662896e+02,-6.270191611634542611e-15,-3.548687839229792029e+00,1.845755839677227783e+00,4.898587196589412829e-16
3.200007984652699378e+01,1.200003832884748647e+02,-6.319177483600437617e-15,-3.586564147140710368e+00,1.771032924156077826e+00,4.898587196589412829e-16
3.200007659723974029e+01,1.200003851268328674e+02,-6.368163355566332623e-15,-3.622867269479639774e+00,1.695533175061207487e+00,4.898587196589412829e-16
