ref_pos_lat (deg),ref_pos_lon (deg),ref_pos_alt (m)
3.200000000000000000e+01,1.199999999999999858e+02,0.000000000000000000e+00
3.200000036072820819e+01,1.199999999999999858e+02,-4.898587196589412767e-18
3.200000072145640928e+01,1.200000000000886331e+02,-9.797174393178825534e-18
3.200000108218455352e+01,1.200000000003457501e+02,-1.469576158976823676e-17
3.200000144291250592e+01,1.200000000008431158e+02,-1.959434878635765107e-17
3.200000180364006752e+01,1.200000000016454038e+02,-2.449293598294706538e-17
3.200000216436690437e+01,1.200000000028107365e+02,-2.939152317953647968e-17
3.200000252509260434e+01,1.200000000043914667e+02,-3.429011037612589399e-17
3.200000288581660612e+01,1.200000000064347319e+02,-3.918869757271530830e-17
3.200000324653827732e+01,1.200000000089829513e+02,-4.408728476930472261e-17
3.200000360725686477e+01,1.200000000120742101e+02,-4.898587196589413692e-17
3.200000396797152291e+01,1.200000000157429412e+02,-5.388445916248355122e-17
3.200000432868131384e+01,1.200000000200200105e+02,-5.878304635907295937e-17
3.200000468938522147e+01,1.200000000249332004e+02,-6.368163355566237368e-17
3.200000505008215157e+01,1.200000000305075645e+02,-6.858022075225178798e-17
3.200000541077093885e+01,1.200000000367656554e+02,-7.347880794884120229e-17
3.200000577145036118e+01,1.200000000437276526e+02,-7.837739514543061660e-17
3.200000613211912537e+01,1.200000000514118739e+02,-8.327598234202003091e-17
3.200000649277592402e+01,1.200000000598346759e+02,-8.817456953860944521e-17
3.200000685341936446e+01,1.200000000690108237e+02,-9.307315673519885952e-17
3.200000721404805404e+01,1.200000000789535903e+02,-9.797174393178827383e-17
3.200000757466054324e+01,1.200000000896749128e+02,-1.028703311283776881e-16
3.200000793525536125e+01,1.200000001011855488e+02,-1.077689183249671024e-16
3.200000829583102302e+01,1.200000001134951333e+02,-1.126675055215565168e-16
3.200000865638600800e+01,1.200000001266123775e+02,-1.175660927181459187e-16
3.200000901691876720e+01,1.200000001405450405e+02,-1.224646799147353207e-16
3.200000937742777296e+01,1.200000001553001709e+02,-1.273632671113247227e-16
3.200000973791144787e+01,1.200000001708840642e+02,-1.322618543079141247e-16
3.200001009836822874e+01,1.200000001873024047e+02,-1.371604415045035267e-16
3.200001045879653105e+01,1.200000002045602372e+02,-1.420590287010929286e-16
3.200001081919476320e+01,1.200000002226621802e+02,-1.469576158976823306e-16
3.200001117956134067e+01,1.200000002416122840e+02,-1.518562030942717326e-16
3.200001153989464342e+01,1.200000002614142574e+02,-1.567547902908611346e-16
3.200001190019309405e+01,1.200000002820713974e+02,-1.616533774874505366e-16
3.200001226045505831e+01,1.200000003035866314e+02,-1.665519646840399386e-16
3.200001262067895169e+01,1.200000003259626453e+02,-1.714505518806293405e-16
3.200001298086316126e+01,1.200000003492017981e+02,-1.763491390772187425e-16
3.200001334100607409e+01,1.200000003733061931e+02,-1.812477262738081445e-16
3.200001370110607724e+01,1.200000003982777486e+02,-1.861463134703975465e-16
3.200001406116156488e+01,1.200000004241181273e+02,-1.910449006669869485e-16
3.200001442117092409e+01,1.200000004508288356e+02,-1.959434878635763504e-16
3.200001478113255615e+01,1.200000004784112377e+02,-2.008420750601657524e-16
3.200001514104484102e+01,1.200000005068664990e+02,-2.057406622567551544e-16
3.200001550090617997e+01,1.200000005361956852e+02,-2.106392494533445564e-16
3.200001586071496718e+01,1.200000005663997342e+02,-2.155378366499339584e-16
3.200001622046959682e+01,1.200000005974794561e+02,-2.204364238465233604e-16
3.200001658016846307e+01,1.200000006294355757e+02,-2.253350110431127870e-16
3.200001693980996720e+01,1.200000006622687181e+02,-2.302335982397021890e-16
3.200001729939251049e+01,1.200000006959794803e+02,-2.351321854362915910e-16
3.200001765891448713e+01,1.200000007305683170e+02,-2.400307726328809929e-16
3.200001801837430548e+01,1.200000007660356260e+02,-2.449293598294703949e-16
3.200001837777038105e+01,1.200000008023817486e+02,-2.498279470260597969e-16
3.200001873710109379e+01,1.200000008396070115e+02,-2.547265342226491989e-16
3.200001909636487341e+01,1.200000008777116562e+02,-2.596251214192386009e-16
3.200001945556011407e+01,1.200000009166958677e+02,-2.645237086158280028e-16
3.200001981468523127e+01,1.200000009565598589e+02,-2.694222958124174048e-16
3.200002017373863339e+01,1.200000009973036725e+02,-2.743208830090068068e-16
3.200002053271873592e+01,1.200000010389274649e+02,-2.792194702055962088e-16
3.200002089162394725e+01,1.200000010814312787e+02,-2.841180574021856108e-16
3.200002125045268997e+01,1.200000011248151424e+02,-2.890166445987750128e-16
3.200002160920336536e+01,1.200000011690790700e+02,-2.939152317953644147e-16
3.200002196787440312e+01,1.200000012142230190e+02,-2.988138189919538167e-16
3.200002232646421874e+01,1.200000012602469752e+02,-3.037124061885432187e-16
3.200002268497122770e+01,1.200000013071508675e+02,-3.086109933851326207e-16
3.200002304339385262e+01,1.200000013549346249e+02,-3.135095805817220227e-16
3.200002340173050186e+01,1.200000014035981906e+02,-3.184081677783114246e-16
3.200002375997961224e+01,1.200000014531413797e+02,-3.233067549749008266e-16
3.200002411813959924e+01,1.200000015035641070e+02,-3.282053421714902286e-16
3.200002447620888546e+01,1.200000015548662304e+02,-3.331039293680796306e-16
3.200002483418590060e+01,1.200000016070476363e+02,-3.380025165646690326e-16
3.200002519206906726e+01,1.200000016601081114e+02,-3.429011037612584346e-16
3.200002554985680092e+01,1.200000017140475279e+02,-3.477996909578478365e-16
3.200002590754754550e+01,1.200000017688656584e+02,-3.526982781544372385e-16
3.200002626513970938e+01,1.200000018245623323e+02,-3.575968653510266405e-16
3.200002662263174358e+01,1.200000018811373792e+02,-3.624954525476160425e-16
3.200002698002204937e+01,1.200000019385905574e+02,-3.673940397442054445e-16
3.200002733730907778e+01,1.200000019969216822e+02,-3.722926269407948464e-16
3.200002769449125140e+01,1.200000020561304837e+02,-3.771912141373842484e-16
3.200002805156699992e+01,1.200000021162167485e+02,-3.820898013339736504e-16
3.200002840853474595e+01,1.200000021771802778e+02,-3.869883885305630524e-16
3.200002876539294050e+01,1.200000022390208017e+02,-3.918869757271524544e-16
3.200002912214000617e+01,1.200000023017380215e+02,-3.967855629237418564e-16
3.200002947877437265e+01,1.200000023653317669e+02,-4.016841501203312583e-16
3.200002983529448386e+01,1.200000024298017394e+02,-4.065827373169206603e-16
3.200003019169876239e+01,1.200000024951476547e+02,-4.114813245135100623e-16
3.200003054798565216e+01,1.200000025613692429e+02,-4.163799117100994643e-16
3.200003090415358997e+01,1.200000026284662766e+02,-4.212784989066888663e-16
3.200003126020100552e+01,1.200000026964384006e+02,-4.261770861032782682e-16
3.200003161612634273e+01,1.200000027652853731e+02,-4.310756732998676702e-16
3.200003197192803128e+01,1.200000028350068959e+02,-4.359742604964570722e-16
3.200003232760451510e+01,1.200000029056026420e+02,-4.408728476930464742e-16
3.200003268315423099e+01,1.200000029770723557e+02,-4.457714348896358762e-16
3.200003303857562997e+01,1.200000030494156960e+02,-4.506700220862252782e-16
3.200003339386713463e+01,1.200000031226323500e+02,-4.555686092828146801e-16
3.200003374902719600e+01,1.200000031967220480e+02,-4.604671964794040821e-16
3.200003410405424376e+01,1.200000032716843776e+02,-4.653657836759934841e-16
3.200003445894673604e+01,1.200000033475191117e+02,-4.702643708725828861e-16
3.200003481370311675e+01,1.200000034242258948e+02,-4.751629580691722881e-16
3.200003516832181560e+01,1.200000035018043576e+02,-4.800615452657616900e-16
3.200003552280128361e+01,1.200000035802541873e+02,-4.849601324623510920e-16
3.200003587713995756e+01,1.200000036595750572e+02,-4.898587196589404940e-16
3.200003623133630271e+01,1.200000037397665835e+02,-4.947573068555298960e-16
3.200003658538874163e+01,1.200000038208284678e+02,-4.996558940521192980e-16
3.200003693929573956e+01,1.200000039027603265e+02,-5.045544812487087000e-16
3.200003729305573330e+01,1.200000039855617899e+02,-5.094530684452981019e-16
3.200003764666716677e+01,1.200000040692325172e+02,-5.143516556418875039e-16
3.200003800012849808e+01,1.200000041537721103e+02,-5.192502428384769059e-16
3.200003835343817826e+01,1.200000042391802566e+02,-5.241488300350663079e-16
3.200003870659464411e+01,1.200000043254565441e+02,-5.290474172316557099e-16
3.200003905959636086e+01,1.200000044126006173e+02,-5.339460044282451118e-16
3.200003941244177952e+01,1.200000045006120644e+02,-5.388445916248345138e-16
3.200003976512934400e+01,1.200000045894905298e+02,-5.437431788214239158e-16
3.200004011765750533e+01,1.200000046792356017e+02,-5.486417660180133178e-16
3.200004047002472163e+01,1.200000047698469103e+02,-5.535403532146027198e-16
3.200004082222945101e+01,1.200000048613240295e+02,-5.584389404111921218e-16
3.200004117427014450e+01,1.200000049536665756e+02,-5.633375276077815237e-16
3.200004152614526021e+01,1.200000050468741648e+02,-5.682361148043709257e-16
3.200004187785324916e+01,1.200000051409463424e+02,-5.731347020009603277e-16
3.200004222939256948e+01,1.200000052358827389e+02,-5.780332891975497297e-16
3.200004258076168639e+01,1.200000053316829138e+02,-5.829318763941391317e-16
3.200004293195905092e+01,1.200000054283464550e+02,-5.878304635907285336e-16
3.200004328298312828e+01,1.200000055258729503e+02,-5.927290507873179356e-16
3.200004363383236949e+01,1.200000056242619308e+02,-5.976276379839073376e-16
3.200004398450524690e+01,1.200000057235130271e+02,-6.025262251804967396e-16
3.200004433500021150e+01,1.200000058236257416e+02,-6.074248123770861416e-16
3.200004468531573565e+01,1.200000059245996766e+02,-6.123233995736755436e-16
3.200004503545027035e+01,1.200000060264343631e+02,-6.172219867702649455e-16
3.200004538540229504e+01,1.200000061291293889e+02,-6.221205739668543475e-16
3.200004573517026785e+01,1.200000062326842851e+02,-6.270191611634437495e-16
3.200004608475265400e+01,1.200000063370986112e+02,-6.319177483600331515e-16
3.200004643414791161e+01,1.200000064423718698e+02,-6.368163355566225535e-16
3.200004678335452013e+01,1.200000065485036203e+02,-6.417149227532119554e-16
3.200004713237094478e+01,1.200000066554934079e+02,-6.466135099498013574e-16
3.200004748119565789e+01,1.200000067633407497e+02,-6.515120971463907594e-16
3.200004782982711760e+01,1.200000068720451907e+02,-6.564106843429801614e-16
3.200004817826381043e+01,1.200000069816062336e+02,-6.613092715395695634e-16
3.200004852650419451e+01,1.200000070920234094e+02,-6.662078587361589654e-16
3.200004887454674218e+01,1.200000072032962350e+02,-6.711064459327483673e-16
3.200004922238993998e+01,1.200000073154242273e+02,-6.760050331293377693e-16
3.200004957003225314e+01,1.200000074284068887e+02,-6.809036203259271713e-16
3.200004991747216110e+01,1.200000075422437078e+02,-6.858022075225165733e-16
3.200005026470812908e+01,1.200000076569342013e+02,-6.907007947191059753e-16
3.200005061173863652e+01,1.200000077724778436e+02,-6.955993819156953772e-16
3.200005095856217707e+01,1.200000078888741939e+02,-7.004979691122847792e-16
3.200005130517720886e+01,1.200000080061226697e+02,-7.053965563088741812e-16
3.200005165158222553e+01,1.200000081242227736e+02,-7.102951435054635832e-16
3.200005199777570652e+01,1.200000082431740083e+02,-7.151937307020529852e-16
3.200005234375612417e+01,1.200000083629758336e+02,-7.200923178986423872e-16
3.200005268952196502e+01,1.200000084836277381e+02,-7.249909050952317891e-16
3.200005303507172272e+01,1.200000086051291817e+02,-7.298894922918211911e-16
3.200005338040386249e+01,1.200000087274796243e+02,-7.347880794884105931e-16
3.200005372551688509e+01,1.200000088506785545e+02,-7.396866666849999951e-16
3.200005407040926286e+01,1.200000089747254037e+02,-7.445852538815893971e-16
3.200005441507950366e+01,1.200000090996196604e+02,-7.494838410781787990e-16
3.200005475952607270e+01,1.200000092253607420e+02,-7.543824282747682010e-16
3.200005510374747786e+01,1.200000093519481226e+02,-7.592810154713576030e-16
3.200005544774219146e+01,1.200000094793812195e+02,-7.641796026679470050e-16
3.200005579150871426e+01,1.200000096076595071e+02,-7.690781898645364070e-16
3.200005613504554702e+01,1.200000097367824168e+02,-7.739767770611258090e-16
3.200005647835116918e+01,1.200000098667493376e+02,-7.788753642577152109e-16
3.200005682142407437e+01,1.200000099975597578e+02,-7.837739514543046129e-16
3.200005716426277047e+01,1.200000101292130950e+02,-7.886725386508940149e-16
3.200005750686574402e+01,1.200000102617087379e+02,-7.935711258474834169e-16
3.200005784923148866e+01,1.200000103950461181e+02,-7.984697130440728189e-16
3.200005819135851226e+01,1.200000105292246673e+02,-8.033683002406622208e-16
3.200005853324530847e+01,1.200000106642437885e+02,-8.082668874372516228e-16
3.200005887489037804e+01,1.200000108001028849e+02,-8.131654746338410248e-16
3.200005921629222883e+01,1.200000109368013455e+02,-8.180640618304304268e-16
3.200005955744934738e+01,1.200000110743386017e+02,-8.229626490270198288e-16
3.200005989836025577e+01,1.200000112127140284e+02,-8.278612362236092308e-16
3.200006023902344765e+01,1.200000113519270570e+02,-8.327598234201986327e-16
3.200006057943743087e+01,1.200000114919770056e+02,-8.376584106167880347e-16
3.200006091960071331e+01,1.200000116328633482e+02,-8.425569978133774367e-16
3.200006125951180280e+01,1.200000117745853743e+02,-8.474555850099668387e-16
3.200006159916920723e+01,1.200000119171425155e+02,-8.523541722065562407e-16
3.200006193857144154e+01,1.200000120605341607e+02,-8.572527594031456426e-16
3.200006227771700651e+01,1.200000122047596420e+02,-8.621513465997350446e-16
3.200006261660441709e+01,1.200000123498183626e+02,-8.670499337963244466e-16
3.200006295523220246e+01,1.200000124957096403e+02,-8.719485209929138486e-16
3.200006329359885626e+01,1.200000126424328784e+02,-8.768471081895032506e-16
3.200006363170290768e+01,1.200000127899874087e+02,-8.817456953860926526e-16
3.200006396954286458e+01,1.200000129383725920e+02,-8.866442825826820545e-16
3.200006430711724903e+01,1.200000130875877886e+02,-8.915428697792715551e-16
3.200006464442458309e+01,1.200000132376323165e+02,-8.964414569758610557e-16
3.200006498146338174e+01,1.200000133885055362e+02,-9.013400441724505563e-16
3.200006531823216704e+01,1.200000135402067940e+02,-9.062386313690400569e-16
3.200006565472947528e+01,1.200000136927354077e+02,-9.111372185656295575e-16
3.200006599095380722e+01,1.200000138460907095e+02,-9.160358057622190581e-16
3.200006632690371333e+01,1.200000140002720457e+02,-9.209343929588085587e-16
3.200006666257770149e+01,1.200000141552787198e+02,-9.258329801553980593e-16
3.200006699797430088e+01,1.200000143111100783e+02,-9.307315673519875598e-16
3.200006733309204776e+01,1.200000144677653964e+02,-9.356301545485770604e-16
3.200006766792946422e+01,1.200000146252439919e+02,-9.405287417451665610e-16
3.200006800248509364e+01,1.200000147835452111e+02,-9.454273289417560616e-16
3.200006833675745099e+01,1.200000149426683436e+02,-9.503259161383455622e-16
3.200006867074508676e+01,1.200000151026126787e+02,-9.552245033349350628e-16
3.200006900444652302e+01,1.200000152633775059e+02,-9.601230905315245634e-16
3.200006933786030316e+01,1.200000154249621573e+02,-9.650216777281140640e-16
3.200006967098497057e+01,1.200000155873659082e+02,-9.699202649247035646e-16
3.200007000381904732e+01,1.200000157505880338e+02,-9.748188521212930651e-16
3.200007033636108389e+01,1.200000159146278094e+02,-9.797174393178825657e-16
3.200007066860962368e+01,1.200000160794845527e+02,-9.846160265144720663e-16
3.200007100056320297e+01,1.200000162451575108e+02,-9.895146137110615669e-16
3.200007133222037226e+01,1.200000164116459871e+02,-9.944132009076510675e-16
3.200007166357966781e+01,1.200000165789492002e+02,-9.993117881042405681e-16
3.200007199463964724e+01,1.200000167470664678e+02,-1.004210375300830069e-15
3.200007232539885393e+01,1.200000169159970227e+02,-1.009108962497419569e-15
3.200007265585583127e+01,1.200000170857401258e+02,-1.014007549694009070e-15
3.200007298600912975e+01,1.200000172562950524e+02,-1.018906136890598570e-15
3.200007331585731407e+01,1.200000174276610352e+02,-1.023804724087188071e-15
3.200007364539892762e+01,1.200000175998373351e+02,-1.028703311283777572e-15
3.200007397463252090e+01,1.200000177728231705e+02,-1.033601898480367072e-15
3.200007430355665861e+01,1.200000179466178167e+02,-1.038500485676956573e-15
3.200007463216989123e+01,1.200000181212204922e+02,-1.043399072873546073e-15
3.200007496047078348e+01,1.200000182966304294e+02,-1.048297660070135574e-15
3.200007528845789295e+01,1.200000184728468611e+02,-1.053196247266725075e-15
3.200007561612977725e+01,1.200000186498690340e+02,-1.058094834463314575e-15
3.200007594348500817e+01,1.200000188276961666e+02,-1.062993421659904076e-15
3.200007627052213621e+01,1.200000190063274346e+02,-1.067892008856493576e-15
3.200007659723974029e+01,1.200000191857621132e+02,-1.072790596053083077e-15
3.200007692363637801e+01,1.200000193659993641e+02,-1.077689183249672578e-15
3.200007724971061407e+01,1.200000195470384483e+02,-1.082587770446262078e-15
3.200007757546103448e+01,1.200000197288785415e+02,-1.087486357642851579e-15
3.200007790088618975e+01,1.200000199115188479e+02,-1.092384944839441079e-15
3.200007822598467300e+01,1.200000200949585576e+02,-1.097283532036030580e-15
3.200007855075504892e+01,1.200000202791968889e+02,-1.102182119232620080e-15
3.200007887519588934e+01,1.200000204642330459e+02,-1.107080706429209581e-15
3.200007919930577316e+01,1.200000206500661619e+02,-1.111979293625799082e-15
3.200007952308327930e+01,1.200000208366954553e+02,-1.116877880822388582e-15
3.200007984652698667e+01,1.200000210241201017e+02,-1.121776468018978083e-15
3.200008016963548130e+01,1.200000212123393055e+02,-1.126675055215567583e-15
3.200008049240734209e+01,1.200000214013522140e+02,-1.131573642412157084e-15
3.200008081484115507e+01,1.200000215911579602e+02,-1.136472229608746585e-15
3.200008113693549916e+01,1.200000217817558053e+02,-1.141370816805336085e-15
3.200008145868896747e+01,1.200000219731448539e+02,-1.146269404001925586e-15
3.200008178010015314e+01,1.200000221653242392e+02,-1.151167991198515086e-15
3.200008210116763507e+01,1.200000223582931795e+02,-1.156066578395104587e-15
3.200008242189001351e+01,1.200000225520508081e+02,-1.160965165591694088e-15
3.200008274226588156e+01,1.200000227465962581e+02,-1.165863752788283588e-15
3.200008306229382526e+01,1.200000229419286768e+02,-1.170762339984873089e-15
3.200008338197245195e+01,1.200000231380472258e+02,-1.175660927181462589e-15
3.200008370130035473e+01,1.200000233349510381e+02,-1.180559514378052090e-15
3.200008402027612675e+01,1.200000235326392470e+02,-1.185458101574641590e-15
3.200008433889837534e+01,1.200000237311109998e+02,-1.190356688771231091e-15
3.200008465716570782e+01,1.200000239303654013e+02,-1.195255275967820592e-15
3.200008497507671734e+01,1.200000241304015844e+02,-1.200153863164410092e-15
3.200008529263001122e+01,1.200000243312186967e+02,-1.205052450360999593e-15
3.200008560982420391e+01,1.200000245328158144e+02,-1.209951037557589093e-15
3.200008592665790275e+01,1.200000247351920990e+02,-1.214849624754178594e-15
3.200008624312970795e+01,1.200000249383466127e+02,-1.219748211950768095e-15
3.200008655923824108e+01,1.200000251422784885e+02,-1.224646799147357595e-15
3.200008687498211657e+01,1.200000253469868454e+02,-1.229545386343947096e-15
3.200008719035994176e+01,1.200000255524707882e+02,-1.234443973540536596e-15
3.200008750537033819e+01,1.200000257587293930e+02,-1.239342560737126097e-15
3.200008782001192031e+01,1.200000259657617789e+02,-1.244241147933715598e-15
3.200008813428330967e+01,1.200000261735669795e+02,-1.249139735130305098e-15
3.200008844818313491e+01,1.200000263821441706e+02,-1.254038322326894599e-15
3.200008876171001049e+01,1.200000265914923716e+02,-1.258936909523484099e-15
3.200008907486256504e+01,1.200000268016106872e+02,-1.263835496720073600e-15
3.200008938763942012e+01,1.200000270124982080e+02,-1.268734083916663101e-15
3.200008970003920439e+01,1.200000272241539960e+02,-1.273632671113252601e-15
3.200009001206054648e+01,1.200000274365770991e+02,-1.278531258309842102e-15
