ref_vel_x (m/s),ref_vel_y (m/s),ref_vel_z (m/s)
2.000000000000000000e+00,-1.224646799147353207e-16,2.449293598294706414e-16
1.999999956135091628e+00,4.188790174159645976e-04,2.449293598294706414e-16
1.999999631096131214e+00,1.214749084700172651e-03,2.449293598294706414e-16
1.999998619479373518e+00,2.349910764201392031e-03,2.449293598294706414e-16
1.999996408149321780e+00,3.790433987197135840e-03,2.449293598294706414e-16
1.999992421580145674e+00,5.505780778876250871e-03,2.449293598294706414e-16
1.999986055456315359e+00,7.468465725198075722e-03,2.449293598294706414e-16
1.999976701139946522e+00,9.653750430653015857e-03,2.449293598294706414e-16
1.999963763072784229e+00,1.203936857763372031e-02,2.449293598294706414e-16
1.999946670748770527e+00,1.460527852896498918e-02,2.449293598294706414e-16
1.999924886547725489e+00,1.733344071636438305e-02,2.449293598294706414e-16
1.999897910444881743e+00,2.020761733098169061e-02,2.449293598294706414e-16
1.999865282391160237e+00,2.321319207961327832e-02,2.449293598294706414e-16
1.999826582984118861e+00,2.633700799374806556e-02,2.449293598294706414e-16
1.999781432910590739e+00,2.956722148029509306e-02,2.449293598294706414e-16
1.999729491531936576e+00,3.289317098460056016e-02,2.449293598294706414e-16
1.999670454895871252e+00,3.630525880005566752e-02,2.449293598294706414e-16
1.999604053390278802e+00,3.979484470590344963e-02,2.449293598294706414e-16
1.999530049200643145e+00,4.335415024739451562e-02,2.449293598294706414e-16
1.999448233690644727e+00,4.697617259165091236e-02,2.449293598294706414e-16
1.999358424792737399e+00,5.065460699979489750e-02,2.449293598294706414e-16
1.999260464470181464e+00,5.438377705230301729e-02,2.449293598294706414e-16
1.999154216292536868e+00,5.815857185121655476e-02,2.449293598294706414e-16
1.999039563151766341e+00,6.197438950078752035e-02,2.449293598294706414e-16
1.998916405134888663e+00,6.582708623821446892e-02,2.449293598294706414e-16
1.998784657560765510e+00,6.971293064914954596e-02,2.449293598294706414e-16
1.998644249182473187e+00,7.362856245933382948e-02,2.449293598294706414e-16
1.998495120552311377e+00,7.757095544469083670e-02,2.449293598294706414e-16
1.998337222543432601e+00,8.153738404805258022e-02,2.449293598294706414e-16
1.998170515020031512e+00,8.552539333193530380e-02,2.449293598294706414e-16
1.997994965646769705e+00,8.953277193387668142e-02,2.449293598294706414e-16
1.997810548827423816e+00,9.355752772421767338e-02,2.449293598294706414e-16
1.997617244762494249e+00,9.759786589624215580e-02,2.449293598294706414e-16
1.997415038615576455e+00,1.016521692455960857e-01,2.449293598294706414e-16
1.997203919778576031e+00,1.057189804202214589e-01,2.449293598294706414e-16
1.996983881226294111e+00,1.097969859439076740e-01,2.449293598294706414e-16
1.996754918951436641e+00,1.138850018362476124e-01,2.449293598294706414e-16
1.996517031471702897e+00,1.179819606694984951e-01,2.449293598294706414e-16
1.996270219401226287e+00,1.220868999187859072e-01,2.449293598294706414e-16
1.996014485079266265e+00,1.261989514764348119e-01,2.449293598294706414e-16
1.995749832249671840e+00,1.303173322141253088e-01,2.449293598294706414e-16
1.995476265785226744e+00,1.344413354881877076e-01,2.449293598294706414e-16
1.995193791451552512e+00,1.385703234938100159e-01,2.449293598294706414e-16
1.994902415705778864e+00,1.427037203833448897e-01,2.449293598294706414e-16
1.994602145525681491e+00,1.468410060723785160e-01,2.449293598294706414e-16
1.994292988265444766e+00,1.509817106648435048e-01,2.449293598294706414e-16
1.993974951534627893e+00,1.551254094353285429e-01,2.449293598294706414e-16
1.993648043097289824e+00,1.592717183129088721e-01,2.449293598294706414e-16
1.993312270788580198e+00,1.634202898163925610e-01,2.449293598294706414e-16
1.992967642446412668e+00,1.675708093958717393e-01,2.449293598294706414e-16
1.992614165856122721e+00,1.717229921399820447e-01,2.449293598294706414e-16
1.992251848706261930e+00,1.758765798123272106e-01,2.449293598294706414e-16
1.991880698553910811e+00,1.800313381841730231e-01,2.449293598294706414e-16
1.991500722798092093e+00,1.841870546338051362e-01,2.449293598294706414e-16
1.991111928660045605e+00,1.883435359859032820e-01,2.449293598294706414e-16
1.990714323169288980e+00,1.925006065669387922e-01,2.449293598294706414e-16
1.990307913154527375e+00,1.966581064550111668e-01,2.449293598294706414e-16
1.989892705238598625e+00,2.008158899046876833e-01,2.449293598294706414e-16
1.989468705836756612e+00,2.049738239293520670e-01,2.449293598294706414e-16
1.989035921157683795e+00,2.091317870253221745e-01,2.449293598294706414e-16
1.988594357206717511e+00,2.132896680235635278e-01,2.449293598294706414e-16
1.988144019790844430e+00,2.174473650562420701e-01,2.449293598294706414e-16
1.987684914525081448e+00,2.216047846266408494e-01,2.449293598294706414e-16
1.987217046839925061e+00,2.257618407721006526e-01,2.449293598294706414e-16
1.986740421989592109e+00,2.299184543106909395e-01,2.449293598294706414e-16
1.986255045060825397e+00,2.340745521632345005e-01,2.449293598294706414e-16
1.985760920982068134e+00,2.382300667431563046e-01,2.449293598294706414e-16
1.985258054532852201e+00,2.423849354073691342e-01,2.449293598294706414e-16
1.984746450353263025e+00,2.465390999621001611e-01,2.449293598294706414e-16
1.984226112953374699e+00,2.506925062181581398e-01,2.449293598294706414e-16
1.983697046722569635e+00,2.548451035907008944e-01,2.449293598294706414e-16
1.983159255938669263e+00,2.589968447390507134e-01,2.449293598294706414e-16
1.982612744776822256e+00,2.631476852425552737e-01,2.449293598294706414e-16
1.982057517318110085e+00,2.672975833088845898e-01,2.449293598294706414e-16
1.981493577557832619e+00,2.714464995115265511e-01,2.449293598294706414e-16
1.980920929413459097e+00,2.755943965535531670e-01,2.449293598294706414e-16
1.980339576732221385e+00,2.797412390550354511e-01,2.449293598294706414e-16
1.979749523298347080e+00,2.838869933617382268e-01,2.449293598294706414e-16
1.979150772839926908e+00,2.880316273729678356e-01,2.449293598294706414e-16
1.978543329035415743e+00,2.921751103866563892e-01,2.449293598294706414e-16
1.977927195519773917e+00,2.963174129599569495e-01,2.449293598294706414e-16
1.977302375890255481e+00,3.004585067837998724e-01,2.449293598294706414e-16
1.976668873711850072e+00,3.045983645700128806e-01,2.449293598294706414e-16
1.976026692522393269e+00,3.087369599497465922e-01,2.449293598294706414e-16
1.975375835837355210e+00,3.128742673820749665e-01,2.449293598294706414e-16
1.974716307154320782e+00,3.170102620717542008e-01,2.449293598294706414e-16
1.974048109957174058e+00,3.211449198952218143e-01,2.449293598294706414e-16
1.973371247720004718e+00,3.252782173340099114e-01,2.449293598294706414e-16
1.972685723910745148e+00,3.294101314148357718e-01,2.449293598294706414e-16
1.971991541994556618e+00,3.335406396556959696e-01,2.449293598294706414e-16
1.971288705436977207e+00,3.376697200173662816e-01,2.449293598294706414e-16
1.970577217706843909e+00,3.417973508597653143e-01,2.449293598294706414e-16
1.969857082279004690e+00,3.459235109026949639e-01,2.449293598294706414e-16
1.969128302636829364e+00,3.500481791905217244e-01,2.449293598294706414e-16
1.968390882274537956e+00,3.541713350603996613e-01,2.449293598294706414e-16
1.967644824699352091e+00,3.582929581136866104e-01,2.449293598294706414e-16
1.966890133433484067e+00,3.624130281902281925e-01,2.449293598294706414e-16
1.966126812015975167e+00,3.665315253452265387e-01,2.449293598294706414e-16
1.965354864004390523e+00,3.706484298284338785e-01,2.449293598294706414e-16
1.964574292976384307e+00,3.747637220654362888e-01,2.449293598294706414e-16
1.963785102531140137e+00,3.788773826408214362e-01,2.449293598294706414e-16
1.962987296290698680e+00,3.829893922830406860e-01,2.449293598294706414e-16
1.962180877901179565e+00,3.870997318507929941e-01,2.449293598294706414e-16
1.961365851033905372e+00,3.912083823207830879e-01,2.449293598294706414e-16
1.960542219386433249e+00,3.953153247767134393e-01,2.449293598294706414e-16
1.959709986683505045e+00,3.994205403993850712e-01,2.449293598294706414e-16
1.958869156677916612e+00,4.035240104578008968e-01,2.449293598294706414e-16
1.958019733151318720e+00,4.076257163011655638e-01,2.449293598294706414e-16
1.957161719914947806e+00,4.117256393516969815e-01,2.449293598294706414e-16
1.956295120810297661e+00,4.158237610981642129e-01,2.449293598294706414e-16
1.955419939709734489e+00,4.199200630900817854e-01,2.449293598294706414e-16
1.954536180517059130e+00,4.240145269324932520e-01,2.449293598294706414e-16
1.953643847168020864e+00,4.281071342812855507e-01,2.449293598294706414e-16
1.952742943630788153e+00,4.321978668389799272e-01,2.449293598294706414e-16
1.951833473906377181e+00,4.362867063509543453e-01,2.449293598294706414e-16
1.950915442029043767e+00,4.403736346020509784e-01,2.449293598294706414e-16
1.949988852066641076e+00,4.444586334135307015e-01,2.449293598294706414e-16
1.949053708120944250e+00,4.485416846403434965e-01,2.449293598294706414e-16
1.948110014327946615e+00,4.526227701686777460e-01,2.449293598294706414e-16
1.947157774858130130e+00,4.567018719137636018e-01,2.449293598294706414e-16
1.946196993916708973e+00,4.607789718179048921e-01,2.449293598294706414e-16
1.945227675743852469e+00,4.648540518487170314e-01,2.449293598294706414e-16
1.944249824614886490e+00,4.689270939975461183e-01,2.449293598294706414e-16
1.943263444840475529e+00,4.729980802780583415e-01,2.449293598294706414e-16
1.942268540766787899e+00,4.770669927249762687e-01,2.449293598294706414e-16
1.941265116775644728e+00,4.811338133929499716e-01,2.449293598294706414e-16
1.940253177284654518e+00,4.851985243555497207e-01,2.449293598294706414e-16
1.939232726747333047e+00,4.892611077043663714e-01,2.449293598294706414e-16
1.938203769653212616e+00,4.933215455482120038e-01,2.449293598294706414e-16
1.937166310527939084e+00,4.973798200124052160e-01,2.449293598294706414e-16
1.936120353933358462e+00,5.014359132381396300e-01,2.449293598294706414e-16
1.935065904467594411e+00,5.054898073819202864e-01,2.449293598294706414e-16
1.934002966765117071e+00,5.095414846150658761e-01,2.449293598294706414e-16
1.932931545496803460e+00,5.135909271232690365e-01,2.449293598294706414e-16
1.931851645369990544e+00,5.176381171062076625e-01,2.449293598294706414e-16
1.930763271128523195e+00,5.216830367772030685e-01,2.449293598294706414e-16
1.929666427552793495e+00,5.257256683629204508e-01,2.449293598294706414e-16
1.928561119459776485e+00,5.297659941031073183e-01,2.449293598294706414e-16
1.927447351703059919e+00,5.338039962503663416e-01,2.449293598294706414e-16
1.926325129172869133e+00,5.378396570699572887e-01,2.449293598294706414e-16
1.925194456796088804e+00,5.418729588396272723e-01,2.449293598294706414e-16
1.924055339536279385e+00,5.459038838494673085e-01,2.449293598294706414e-16
1.922907782393690423e+00,5.499324144017879723e-01,2.449293598294706414e-16
1.921751790405270777e+00,5.539585328110182560e-01,2.449293598294706414e-16
1.920587368644675941e+00,5.579822214036207484e-01,2.449293598294706414e-16
1.919414522222272046e+00,5.620034625180228005e-01,2.449293598294706414e-16
1.918233256285137855e+00,5.660222385045630134e-01,2.449293598294706414e-16
1.917043576017063655e+00,5.700385317254513806e-01,2.449293598294706414e-16
1.915845486638549255e+00,5.740523245547395348e-01,2.449293598294706414e-16
1.914638993406799106e+00,5.780635993783030946e-01,2.449293598294706414e-16
1.913424101615715189e+00,5.820723385938325611e-01,2.449293598294706414e-16
1.912200816595889918e+00,5.860785246108336510e-01,2.449293598294706414e-16
1.910969143714595919e+00,5.900821398506347348e-01,2.449293598294706414e-16
1.909729088375774486e+00,5.940831667464018251e-01,2.449293598294706414e-16
1.908480656020024480e+00,5.980815877431583383e-01,2.449293598294706414e-16
1.907223852124587227e+00,6.020773852978122953e-01,2.449293598294706414e-16
1.905958682203333643e+00,6.060705418791870747e-01,2.449293598294706414e-16
1.904685151806747134e+00,6.100610399680582718e-01,2.449293598294706414e-16
1.903403266521907167e+00,6.140488620571927791e-01,2.449293598294706414e-16
1.902113031972473056e+00,6.180339906513929726e-01,2.449293598294706414e-16
1.900814453818663763e+00,6.220164082675431194e-01,2.449293598294706414e-16
1.899507537757241016e+00,6.259960974346596707e-01,2.449293598294706414e-16
1.898192289521487552e+00,6.299730406939436644e-01,2.449293598294706414e-16
1.896868714881188467e+00,6.339472205988357922e-01,2.449293598294706414e-16
1.895536819642609005e+00,6.379186197150726878e-01,2.449293598294706414e-16
1.894196609648474139e+00,6.418872206207462128e-01,2.449293598294706414e-16
1.892848090777945469e+00,6.458530059063645190e-01,2.449293598294706414e-16
1.891491268946600135e+00,6.498159581749133329e-01,2.449293598294706414e-16
1.890126150106405722e+00,6.537760600419204593e-01,2.449293598294706414e-16
1.888752740245699391e+00,6.577332941355193974e-01,2.449293598294706414e-16
1.887371045389161672e+00,6.616876430965161759e-01,2.449293598294706414e-16
1.885981071597794267e+00,6.656390895784558559e-01,2.449293598294706414e-16
1.884582824968893622e+00,6.695876162476902538e-01,2.449293598294706414e-16
1.883176311636028055e+00,6.735332057834456654e-01,2.449293598294706414e-16
1.881761537769010451e+00,6.774758408778935870e-01,2.449293598294706414e-16
1.880338509573874495e+00,6.814155042362189940e-01,2.449293598294706414e-16
1.878907233292847145e+00,6.853521785766923946e-01,2.449293598294706414e-16
1.877467715204324428e+00,6.892858466307385523e-01,2.449293598294706414e-16
1.876019961622842791e+00,6.932164911430102050e-01,2.449293598294706414e-16
1.874563978899054906e+00,6.971440948714576757e-01,2.449293598294706414e-16
1.873099773419700131e+00,7.010686405874020366e-01,2.449293598294706414e-16
1.871627351607579648e+00,7.049901110756077172e-01,2.449293598294706414e-16
1.870146719921527589e+00,7.089084891343535588e-01,2.449293598294706414e-16
1.868657884856383955e+00,7.128237575755071997e-01,2.449293598294706414e-16
1.867160852942966631e+00,7.167358992245982385e-01,2.449293598294706414e-16
1.865655630748043414e+00,7.206448969208899547e-01,2.449293598294706414e-16
1.864142224874303810e+00,7.245507335174538044e-01,2.449293598294706414e-16
1.862620641960330170e+00,7.284533918812429176e-01,2.449293598294706414e-16
1.861090888680569044e+00,7.323528548931651505e-01,2.449293598294706414e-16
1.859552971745303207e+00,7.362491054481573594e-01,2.449293598294706414e-16
1.858006897900620791e+00,7.401421264552585644e-01,2.449293598294706414e-16
1.856452673928387975e+00,7.440319008376850007e-01,2.449293598294706414e-16
1.854890306646217679e+00,7.479184115329026161e-01,2.449293598294706414e-16
1.853319802907442027e+00,7.518016414927014557e-01,2.449293598294706414e-16
1.851741169601080372e+00,7.556815736832697139e-01,2.449293598294706414e-16
1.850154413651810659e+00,7.595581910852683416e-01,2.449293598294706414e-16
1.848559542019938551e+00,7.634314766939038766e-01,2.449293598294706414e-16
1.846956561701368127e+00,7.673014135190033835e-01,2.449293598294706414e-16
1.845345479727569460e+00,7.711679845850881732e-01,2.449293598294706414e-16
1.843726303165549751e+00,7.750311729314476317e-01,2.449293598294706414e-16
1.842099039117821802e+00,7.788909616122127177e-01,2.449293598294706414e-16
1.840463694722372923e+00,7.827473336964311246e-01,2.449293598294706414e-16
1.838820277152633409e+00,7.866002722681402215e-01,2.449293598294706414e-16
1.837168793617445672e+00,7.904497604264416610e-01,2.449293598294706414e-16
1.835509251361032712e+00,7.942957812855745425e-01,2.449293598294706414e-16
1.833841657662966140e+00,7.981383179749891310e-01,2.449293598294706414e-16
1.832166019838134208e+00,8.019773536394214641e-01,2.449293598294706414e-16
1.830482345236710495e+00,8.058128714389666269e-01,2.449293598294706414e-16
1.828790641244120829e+00,8.096448545491521376e-01,2.449293598294706414e-16
1.827090915281011529e+00,8.134732861610118881e-01,2.449293598294706414e-16
1.825383174803216768e+00,8.172981494811601966e-01,2.449293598294706414e-16
1.823667427301725930e+00,8.211194277318644152e-01,2.449293598294706414e-16
1.821943680302650304e+00,8.249371041511190938e-01,2.449293598294706414e-16
1.820211941367190889e+00,8.287511619927189210e-01,2.449293598294706414e-16
1.818472218091605308e+00,8.325615845263323322e-01,2.449293598294706414e-16
1.816724518107173392e+00,8.363683550375747844e-01,2.449293598294706414e-16
1.814968849080164537e+00,8.401714568280826967e-01,2.449293598294706414e-16
1.813205218711804845e+00,8.439708732155842830e-01,2.449293598294706414e-16
1.811433634738241372e+00,8.477665875339763790e-01,2.449293598294706414e-16
1.809654104930510377e+00,8.515585831333938316e-01,2.449293598294706414e-16
1.807866637094501572e+00,8.553468433802847715e-01,2.449293598294706414e-16
1.806071239070925483e+00,8.591313516574821119e-01,2.449293598294706414e-16
1.804267918735276588e+00,8.629120913642787105e-01,2.449293598294706414e-16
1.802456683997802234e+00,8.666890459164963145e-01,2.449293598294706414e-16
1.800637542803464886e+00,8.704621987465627209e-01,2.449293598294706414e-16
1.798810503131908822e+00,8.742315333035804992e-01,2.449293598294706414e-16
1.796975572997424608e+00,8.779970330534022649e-01,2.449293598294706414e-16
1.795132760448914455e+00,8.817586814787025107e-01,2.449293598294706414e-16
1.793282073569856916e+00,8.855164620790482166e-01,2.449293598294706414e-16
1.791423520478270026e+00,8.892703583709745674e-01,2.449293598294706414e-16
1.789557109326678219e+00,8.930203538880532310e-01,2.449293598294706414e-16
1.787682848302074134e+00,8.967664321809685202e-01,2.449293598294706414e-16
1.785800745625883978e+00,9.005085768175874472e-01,2.449293598294706414e-16
1.783910809553931776e+00,9.042467713830312226e-01,2.449293598294706414e-16
1.782013048376401620e+00,9.079809994797495287e-01,2.449293598294706414e-16
1.780107470417803039e+00,9.117112447275893539e-01,2.449293598294706414e-16
1.778194084036933909e+00,9.154374907638693770e-01,2.449293598294706414e-16
1.776272897626842928e+00,9.191597212434513553e-01,2.449293598294706414e-16
1.774343919614793874e+00,9.228779198388105121e-01,2.449293598294706414e-16
1.772407158462228516e+00,9.265920702401078124e-01,2.449293598294706414e-16
1.770462622664729091e+00,9.303021561552619056e-01,2.449293598294706414e-16
1.768510320751981002e+00,9.340081613100206237e-01,2.449293598294706414e-16
1.766550261287735735e+00,9.377100694480315912e-01,2.449293598294706414e-16
1.764582452869773554e+00,9.414078643309145011e-01,2.449293598294706414e-16
1.762606904129864427e+00,9.451015297383317249e-01,2.449293598294706414e-16
1.760623623733732268e+00,9.487910494680591444e-01,2.449293598294706414e-16
1.758632620381015199e+00,9.524764073360580952e-01,2.449293598294706414e-16
1.756633902805227798e+00,9.561575871765458645e-01,2.449293598294706414e-16
1.754627479773723575e+00,9.598345728420658585e-01,2.449293598294706414e-16
1.752613360087655892e+00,9.635073482035600989e-01,2.449293598294706414e-16
1.750591552581938881e+00,9.671758971504389457e-01,2.449293598294706414e-16
1.748562066125209480e+00,9.708402035906518179e-01,2.449293598294706414e-16
1.746524909619788568e+00,9.745002514507573599e-01,2.449293598294706414e-16
1.744480092001640781e+00,9.781560246759956057e-01,2.449293598294706414e-16
1.742427622240336982e+00,9.818075072303559248e-01,2.449293598294706414e-16
1.740367509339013852e+00,9.854546830966492976e-01,2.449293598294706414e-16
1.738299762334334364e+00,9.890975362765781487e-01,2.449293598294706414e-16
1.736224390296448483e+00,9.927360507908061793e-01,2.449293598294706414e-16
1.734141402328953196e+00,9.963702106790285340e-01,2.449293598294706414e-16
1.732050807568852990e+00,1.000000000000041966e+00,2.449293598294706414e-16
1.729952615186519882e+00,1.003625402831813895e+00,2.449293598294706414e-16
1.727846834385651453e+00,1.007246403271554680e+00,2.449293598294706414e-16
1.725733474403233103e+00,1.010862985435783790e+00,2.449293598294706414e-16
1.723612544509495192e+00,1.014475133460403633e+00,2.449293598294706414e-16
1.721484054007874187e+00,1.018082831500764840e+00,2.449293598294706414e-16
1.719348012234970469e+00,1.021686063731739313e+00,2.449293598294706414e-16
