ref_vel_x (m/s),ref_vel_y (m/s),ref_vel_z (m/s)
2.000000000000000000e+00,-1.224646799147353207e-16,2.449293598294706414e-16
2.000199999999999978e+00,-1.224769263827267905e-16,2.449538527654535810e-16
2.000579999999999803e+00,-1.225001946719105881e-16,2.450003893438211762e-16
2.001121999999999623e+00,-1.225333826001674609e-16,2.450667652003349218e-16
2.001809799999999750e+00,-1.225754982035901532e-16,2.451509964071803065e-16
2.002628819999999532e+00,-1.226256487146620166e-16,2.452512974293240331e-16
2.003565937999999491e+00,-1.226830306426181732e-16,2.453660612852363464e-16
2.004609344199999477e+00,-1.227469208457702037e-16,2.454938416915404075e-16
2.005748409779999353e+00,-1.228166684965985010e-16,2.456333369931970020e-16
2.006973568801999175e+00,-1.228916878503354236e-16,2.457833757006708471e-16
2.008276211921799170e+00,-1.229714517366901409e-16,2.459429034733802819e-16
2.009648590729619322e+00,-1.230554857024008835e-16,2.461109714048017670e-16
2.011083731656657214e+00,-1.231433627395319945e-16,2.462867254790639890e-16
2.012575358490991562e+00,-1.232346985409414814e-16,2.464693970818829629e-16
2.014117822641892541e+00,-1.233291472302015142e-16,2.466582944604030283e-16
2.015706040377703179e+00,-1.234263975185269888e-16,2.468527950370539775e-16
2.017335436339932730e+00,-1.235261692460113882e-16,2.470523384920227763e-16
2.019001892705939216e+00,-1.236282102687388051e-16,2.472564205374776103e-16
2.020701703435345387e+00,-1.237322936571849896e-16,2.474645873143699793e-16
2.022431533091810785e+00,-1.238382151747780329e-16,2.476764303495560658e-16
2.024188379782629443e+00,-1.239457910086032047e-16,2.478915820172064093e-16
2.025969541804366614e+00,-1.240548557270373611e-16,2.481097114540747222e-16
2.027772587623930090e+00,-1.241652604416195890e-16,2.483305208832391779e-16
2.029595328861537151e+00,-1.242768711527350688e-16,2.485537423054701376e-16
2.031435795975383485e+00,-1.243895672607304408e-16,2.487791345214608817e-16
2.033292216377845296e+00,-1.245032402259177923e-16,2.490064804518355847e-16
2.035162994740060682e+00,-1.246177923625778366e-16,2.492355847251556732e-16
2.037046695266054641e+00,-1.247331357535633832e-16,2.494662715071267664e-16
2.038942025739449271e+00,-1.248491912734418351e-16,2.496983825468836702e-16
2.040847823165504504e+00,-1.249658877093239338e-16,2.499317754186478675e-16
2.042763040848953882e+00,-1.250831609696092530e-16,2.501663219392185059e-16
2.044686736764058654e+00,-1.252009533718575717e-16,2.504019067437151433e-16
2.046618063087652928e+00,-1.253192130018724963e-16,2.506384260037449925e-16
2.048556256778887530e+00,-1.254378931368773933e-16,2.508757862737547866e-16
2.050500631100999005e+00,-1.255569517263733000e-16,2.511139034527466000e-16
2.052450567990899088e+00,-1.256763509249110809e-16,2.513527018498221618e-16
2.054405511191809364e+00,-1.257960566715865585e-16,2.515921133431731169e-16
2.056364960072628367e+00,-1.259160383115859482e-16,2.518320766231718964e-16
2.058328464065365626e+00,-1.260362682555768959e-16,2.520725365111537918e-16
2.060295617658828959e+00,-1.261567216731601866e-16,2.523134433463203732e-16
2.062266055892945982e+00,-1.262773762169766377e-16,2.525547524339532755e-16
2.064239450303651413e+00,-1.263982117744029234e-16,2.527964235488058469e-16
2.066215505273286457e+00,-1.265192102440780775e-16,2.530384204881561550e-16
2.068193954745957797e+00,-1.266403553347771440e-16,2.532807106695542881e-16
2.070174559271361847e+00,-1.267616323843977984e-16,2.535232647687955968e-16
2.072157103344225870e+00,-1.268830281970478744e-16,2.537660563940957487e-16
2.074141393009803380e+00,-1.270045308964243978e-16,2.540090617928487955e-16
2.076127253708822895e+00,-1.271261297938547337e-16,2.542522595877094674e-16
2.078114528337940747e+00,-1.272478152695335280e-16,2.544956305390670561e-16
2.080103075504146748e+00,-1.273695786656359251e-16,2.547391573312718501e-16
2.082092767953731993e+00,-1.274914121901195300e-16,2.549828243802390600e-16
2.084083491158359003e+00,-1.276133088301462837e-16,2.552266176602925675e-16
2.086075142042523201e+00,-1.277352622741618146e-16,2.554705245483236292e-16
2.088067627838270823e+00,-1.278572668417672573e-16,2.557145336835345146e-16
2.090060865054443884e+00,-1.279793174206036502e-16,2.559586348412073003e-16
2.092054778548999572e+00,-1.281014094095478612e-16,2.562028188190957224e-16
2.094049300694099447e+00,-1.282235386675891013e-16,2.564470773351782025e-16
2.096044370624689623e+00,-1.283457014678177241e-16,2.566914029356354482e-16
2.098039933562220849e+00,-1.284678944560149594e-16,2.569357889120299187e-16
2.100035940205998930e+00,-1.285901146133839434e-16,2.571802292267678868e-16
2.102032346185398914e+00,-1.287123592230075013e-16,2.574247184460150025e-16
2.104029111566859012e+00,-1.288346258396601658e-16,2.576692516793203316e-16
2.106026200410173299e+00,-1.289569122626390435e-16,2.579138245252780870e-16
2.108023580369156047e+00,-1.290792165113115181e-16,2.581584330226230361e-16
2.110021222332240320e+00,-1.292015368031082002e-16,2.584030736062164004e-16
2.112019100099016278e+00,-1.293238715337166765e-16,2.586477430674333530e-16
2.114017190089114706e+00,-1.294462192592557923e-16,2.588924385185115845e-16
2.116015471080203270e+00,-1.295685786802324884e-16,2.591371573604649768e-16
2.118013923972183132e+00,-1.296909486271029848e-16,2.593818972542059696e-16
2.120012531574964942e+00,-1.298133280472778988e-16,2.596266560945557977e-16
2.122011278417468727e+00,-1.299357159934267913e-16,2.598714319868535826e-16
2.124010150575721845e+00,-1.300581116129522717e-16,2.601162232259045435e-16
2.126009135518149851e+00,-1.301805141385166912e-16,2.603610282770333823e-16
2.128008221966334990e+00,-1.303029228795161335e-16,2.606058457590322671e-16
2.130007399769701770e+00,-1.304253372144070916e-16,2.608506744288141833e-16
2.132006659792731629e+00,-1.305477565838004336e-16,2.610955131676008671e-16
2.134005993813458346e+00,-1.306701804842459185e-16,2.613403609684918370e-16
2.136005394432112681e+00,-1.307926084626383346e-16,2.615852169252766693e-16
2.138004854988901471e+00,-1.309150401111829642e-16,2.618300802223659284e-16
2.140004369490011271e+00,-1.310374750628646129e-16,2.620749501257292258e-16
2.142003932541010069e+00,-1.311599129873695443e-16,2.623198259747390887e-16
2.144003539286909010e+00,-1.312823535874154771e-16,2.625647071748309542e-16
2.146003185358217991e+00,-1.314047965954482790e-16,2.628095931908965580e-16
2.148002866822396051e+00,-1.315272417706692927e-16,2.630544835413385855e-16
2.150002580140156550e+00,-1.316496888963596675e-16,2.632993777927193350e-16
2.152002322126140843e+00,-1.317721377774724844e-16,2.635442755549449688e-16
2.154002089913526596e+00,-1.318945882384654845e-16,2.637891764769309691e-16
2.156001880922174152e+00,-1.320170401213506840e-16,2.640340802427013681e-16
2.158001692829956575e+00,-1.321394932839388137e-16,2.642789865678776274e-16
2.160001523546960733e+00,-1.322619475982595755e-16,2.645238951965191510e-16
2.162001371192264543e+00,-1.323844029491397704e-16,2.647688058982795408e-16
2.164001234073038127e+00,-1.325068592329234206e-16,2.650137184658468411e-16
2.166001110665734419e+00,-1.326293163563201804e-16,2.652586327126403608e-16
2.168000999599160927e+00,-1.327517742353687243e-16,2.655035484707374485e-16
2.170000899639244807e+00,-1.328742327945038934e-16,2.657484655890077867e-16
2.172000809675320276e+00,-1.329966919657170277e-16,2.659933839314340554e-16
2.174000728707788266e+00,-1.331191516878003110e-16,2.662383033756006220e-16
2.176000655837009301e+00,-1.332416119056667481e-16,2.664832238113334962e-16
2.178000590253308388e+00,-1.333640725697380089e-16,2.667281451394760177e-16
2.180000531227977323e+00,-1.334865336353936060e-16,2.669730672707872119e-16
2.182000478105179386e+00,-1.336089950624751205e-16,2.672179901249502411e-16
2.184000430294661399e+00,-1.337314568148399535e-16,2.674629136296799069e-16
2.186000387265195410e+00,-1.338539188599597951e-16,2.677078377199195902e-16
2.188000348538675865e+00,-1.339763811685591297e-16,2.679527623371182595e-16
2.190000313684808297e+00,-1.340988437142900032e-16,2.681976874285800064e-16
2.192000282316327375e+00,-1.342213064734392567e-16,2.684426129468785134e-16
2.194000254084694568e+00,-1.343437694246650472e-16,2.686875388493300944e-16
2.196000228676225241e+00,-1.344662325487597458e-16,2.689324650975194915e-16
2.198000205808602558e+00,-1.345886958284364270e-16,2.691773916568728540e-16
2.200000185227742211e+00,-1.347111592481369296e-16,2.694223184962738593e-16
2.202000166704968009e+00,-1.348336227938588740e-16,2.696672455877177480e-16
2.204000150034471250e+00,-1.349560864530000839e-16,2.699121729060001678e-16
2.206000135031024101e+00,-1.350785502142186377e-16,2.701571004284372753e-16
2.208000121527921689e+00,-1.352010140673067985e-16,2.704020281346135970e-16
2.210000109375129362e+00,-1.353234780030776401e-16,2.706469560061552803e-16
2.212000098437616469e+00,-1.354459420132628650e-16,2.708918840265257299e-16
2.214000088593854887e+00,-1.355684060904210494e-16,2.711368121808420989e-16
2.216000079734469441e+00,-1.356908702278548631e-16,2.713817404557097262e-16
2.218000071761022429e+00,-1.358133344195367923e-16,2.716266688390735846e-16
2.220000064584920274e+00,-1.359357986600419885e-16,2.718715973200839771e-16
2.222000058126428090e+00,-1.360582629444881423e-16,2.721165258889762847e-16
2.224000052313785059e+00,-1.361807272684811506e-16,2.723614545369623012e-16
2.226000047082406397e+00,-1.363031916280663303e-16,2.726063832561326605e-16
2.228000042374165712e+00,-1.364256560196844643e-16,2.728513120393689285e-16
2.230000038136749296e+00,-1.365481204401322842e-16,2.730962408802645685e-16
2.232000034323074367e+00,-1.366705848865267748e-16,2.733411697730535495e-16
2.234000030890766819e+00,-1.367930493562732984e-16,2.735860987125465968e-16
2.236000027801690049e+00,-1.369155138470366296e-16,2.738310276940732592e-16
2.238000025021520845e+00,-1.370379783567150950e-16,2.740759567134301900e-16
2.240000022519368805e+00,-1.371604428834172034e-16,2.743208857668344068e-16
2.242000020267431726e+00,-1.372829074254405683e-16,2.745658148508811367e-16
2.244000018240688288e+00,-1.374053719812530493e-16,2.748107439625060986e-16
2.246000016416619172e+00,-1.375278365494757668e-16,2.750556730989515335e-16
2.248000014774957034e+00,-1.376503011288676946e-16,2.753006022577353892e-16
2.250000013297461354e+00,-1.377727657183119044e-16,2.755455314366238089e-16
2.252000011967715043e+00,-1.378952303168031655e-16,2.757904606336063311e-16
2.254000010770943252e+00,-1.380176949234367531e-16,2.760353898468735061e-16
2.256000009693848618e+00,-1.381401595373984640e-16,2.762803190747969280e-16
2.258000008724463825e+00,-1.382626241579555205e-16,2.765252483159110409e-16
2.260000007852017490e+00,-1.383850887844483115e-16,2.767701775688966230e-16
2.262000007066815588e+00,-1.385075534162832933e-16,2.770151068325665865e-16
2.264000006360133987e+00,-1.386300180529262590e-16,2.772600361058525180e-16
2.266000005724120303e+00,-1.387524826938963979e-16,2.775049653877927959e-16
2.268000005151708187e+00,-1.388749473387609953e-16,2.777498946775219905e-16
2.270000004636537394e+00,-1.389974119871306248e-16,2.779948239742612497e-16
2.272000004172883614e+00,-1.391198766386547613e-16,2.782397532773095225e-16
2.274000003755594967e+00,-1.392423412930179341e-16,2.784846825860358683e-16
2.276000003380035164e+00,-1.393648059499362521e-16,2.787296118998725043e-16
2.278000003042031540e+00,-1.394872706091542476e-16,2.789745412183084952e-16
2.280000002737828435e+00,-1.396097352704419182e-16,2.792194705408838365e-16
2.282000002464045441e+00,-1.397321999335922620e-16,2.794643998671845241e-16
2.284000002217640990e+00,-1.398546645984190832e-16,2.797093291968381664e-16
2.286000001995876829e+00,-1.399771292647546748e-16,2.799542585295093495e-16
2.288000001796289151e+00,-1.400995939324481918e-16,2.801991878648963836e-16
2.290000001616660175e+00,-1.402220586013638269e-16,2.804441172027276538e-16
2.292000001454994162e+00,-1.403445232713793806e-16,2.806890465427587613e-16
2.294000001309494774e+00,-1.404669879423848316e-16,2.809339758847696631e-16
2.296000001178545080e+00,-1.405894526142812269e-16,2.811789052285624538e-16
2.298000001060690689e+00,-1.407119172869794501e-16,2.814238345739589002e-16
2.300000000954621537e+00,-1.408343819603993331e-16,2.816687639207986661e-16
2.302000000859159456e+00,-1.409568466344686951e-16,2.819136932689373902e-16
2.304000000773243517e+00,-1.410793113091226030e-16,2.821586226182452061e-16
2.306000000695918928e+00,-1.412017759843025580e-16,2.824035519686051159e-16
2.308000000626326820e+00,-1.413242406599560266e-16,2.826484813199120533e-16
2.310000000563694034e+00,-1.414467053360356035e-16,2.828934106720712069e-16
2.312000000507324682e+00,-1.415691700124987146e-16,2.831383400249974292e-16
2.314000000456592154e+00,-1.416916346893069770e-16,2.833832693786139541e-16
2.316000000410932902e+00,-1.418140993664258781e-16,2.836281987328517562e-16
2.318000000369839331e+00,-1.419365640438243564e-16,2.838731280876487128e-16
2.320000000332855361e+00,-1.420590287214744813e-16,2.841180574429489627e-16
2.322000000299569766e+00,-1.421814933993510586e-16,2.843629867987021173e-16
2.324000000269612620e+00,-1.423039580774314579e-16,2.846079161548629158e-16
2.326000000242651300e+00,-1.424264227556952920e-16,2.848528455113905839e-16
2.328000000218386045e+00,-1.425488874341241952e-16,2.850977748682483903e-16
2.330000000196547294e+00,-1.426713521127017001e-16,2.853427042254034001e-16
2.332000000176892573e+00,-1.427938167914129415e-16,2.855876335828258830e-16
2.334000000159203392e+00,-1.429162814702445089e-16,2.858325629404890178e-16
2.336000000143283017e+00,-1.430387461491843968e-16,2.860774922983687935e-16
2.338000000128954703e+00,-1.431612108282217829e-16,2.863224216564435658e-16
2.340000000116059020e+00,-1.432836755073468805e-16,2.865673510146937610e-16
2.342000000104452972e+00,-1.434061401865509628e-16,2.868122803731019256e-16
2.344000000094007774e+00,-1.435286048658261166e-16,2.870572097316522331e-16
2.346000000084607073e+00,-1.436510695451652174e-16,2.873021390903304347e-16
2.348000000076146510e+00,-1.437735342245619050e-16,2.875470684491238100e-16
2.350000000068531936e+00,-1.438959989040103616e-16,2.877919978080207232e-16
2.352000000061678531e+00,-1.440184635835054596e-16,2.880369271670109193e-16
2.354000000055510800e+00,-1.441409282630425398e-16,2.882818565260850797e-16
2.356000000049959908e+00,-1.442633929426173621e-16,2.885267858852347243e-16
2.358000000044964128e+00,-1.443858576222262040e-16,2.887717152444524081e-16
2.360000000040467949e+00,-1.445083223018656143e-16,2.890166446037312286e-16
2.362000000036421188e+00,-1.446307869815325607e-16,2.892615739630651215e-16
2.364000000032778992e+00,-1.447532516612242824e-16,2.895065033224485647e-16
2.366000000029500949e+00,-1.448757163409382893e-16,2.897514326818765786e-16
2.368000000026550644e+00,-1.449981810206723875e-16,2.899963620413447750e-16
2.370000000023895659e+00,-1.451206457004245309e-16,2.902412914008490619e-16
2.372000000021506239e+00,-1.452431103801929693e-16,2.904862207603859385e-16
2.374000000019355738e+00,-1.453655750599760262e-16,2.907311501199520523e-16
2.376000000017420177e+00,-1.454880397397722472e-16,2.909760794795444944e-16
2.378000000015678239e+00,-1.456105044195803011e-16,2.912210088391606023e-16
2.380000000014110384e+00,-1.457329690993990540e-16,2.914659381987981080e-16
2.382000000012699292e+00,-1.458554337792273718e-16,2.917108675584547436e-16
2.384000000011429421e+00,-1.459778984590643424e-16,2.919557969181286848e-16
2.386000000010286559e+00,-1.461003631389091030e-16,2.922007262778182061e-16
2.388000000009257828e+00,-1.462228278187608401e-16,2.924456556375216803e-16
2.390000000008332126e+00,-1.463452924986189128e-16,2.926905849972378256e-16
2.392000000007498794e+00,-1.464677571784826061e-16,2.929355143569652122e-16
2.394000000006748952e+00,-1.465902218583514270e-16,2.931804437167028539e-16
2.396000000006074160e+00,-1.467126865382248577e-16,2.934253730764497155e-16
2.398000000005466870e+00,-1.468351512181024054e-16,2.936703024362048108e-16
2.400000000004920420e+00,-1.469576158979836755e-16,2.939152317959673510e-16
2.402000000004428593e+00,-1.470800805778682982e-16,2.941601611557365965e-16
2.404000000003985615e+00,-1.472025452577559039e-16,2.944050905155118077e-16
2.406000000003587047e+00,-1.473250099376462459e-16,2.946500198752924917e-16
2.408000000003228447e+00,-1.474474746175390037e-16,2.948949492350780075e-16
2.410000000002905818e+00,-1.475699392974339803e-16,2.951398785948679606e-16
2.412000000002615163e+00,-1.476924039773309290e-16,2.953848079546618580e-16
2.414000000002353818e+00,-1.478148686572296526e-16,2.956297373144593053e-16
2.416000000002118675e+00,-1.479373333371300033e-16,2.958746666742600066e-16
2.418000000001907068e+00,-1.480597980170317838e-16,2.961195960340635675e-16
2.420000000001716334e+00,-1.481822626969348215e-16,2.963645253938696430e-16
2.422000000001544695e+00,-1.483047273768390672e-16,2.966094547536781343e-16
2.424000000001390376e+00,-1.484271920567443482e-16,2.968543841134886964e-16
2.426000000001251600e+00,-1.485496567366505907e-16,2.970993134733011813e-16
2.428000000001126590e+00,-1.486721214165576713e-16,2.973442428331153426e-16
2.430000000001014016e+00,-1.487945860964655161e-16,2.975891721929310323e-16
2.432000000000912543e+00,-1.489170507763740266e-16,2.978341015527480532e-16
2.434000000000821284e+00,-1.490395154562831780e-16,2.980790309125663560e-16
2.436000000000739352e+00,-1.491619801361928964e-16,2.983239602723857927e-16
2.438000000000665413e+00,-1.492844448161031078e-16,2.985688896322062156e-16
2.440000000000599023e+00,-1.494069094960137630e-16,2.988138189920275259e-16
2.442000000000539295e+00,-1.495293741759248372e-16,2.990587483518496744e-16
2.444000000000485340e+00,-1.496518388558362812e-16,2.993036777116725624e-16
2.446000000000436714e+00,-1.497743035357480457e-16,2.995486070714960914e-16
2.448000000000392973e+00,-1.498967682156601060e-16,2.997935364313202121e-16
2.450000000000353673e+00,-1.500192328955724129e-16,3.000384657911448257e-16
2.452000000000318369e+00,-1.501416975754849909e-16,3.002833951509699817e-16
2.454000000000286619e+00,-1.502641622553977907e-16,3.005283245107955815e-16
2.456000000000257977e+00,-1.503866269353107632e-16,3.007732538706215264e-16
2.458000000000232443e+00,-1.505090916152239328e-16,3.010181832304478657e-16
2.460000000000209130e+00,-1.506315562951372504e-16,3.012631125902745008e-16
2.462000000000188482e+00,-1.507540209750507159e-16,3.015080419501014318e-16
2.464000000000169610e+00,-1.508764856549643046e-16,3.017529713099286092e-16
2.466000000000152514e+00,-1.509989503348779920e-16,3.019979006697559839e-16
2.468000000000137195e+00,-1.511214150147917779e-16,3.022428300295835558e-16
2.470000000000123652e+00,-1.512438796947056871e-16,3.024877593894113742e-16
2.472000000000111442e+00,-1.513663443746196703e-16,3.027326887492393406e-16
2.474000000000100563e+00,-1.514888090545337521e-16,3.029776181090675041e-16
2.476000000000090573e+00,-1.516112737344478831e-16,3.032225474688957663e-16
2.478000000000081471e+00,-1.517337384143620389e-16,3.034674768287240777e-16
2.480000000000073257e+00,-1.518562030942762932e-16,3.037124061885525864e-16
2.482000000000065931e+00,-1.519786677741905722e-16,3.039573355483811444e-16
2.484000000000059494e+00,-1.521011324541049005e-16,3.042022649082098010e-16
2.486000000000053500e+00,-1.522235971340192781e-16,3.044471942680385562e-16
2.488000000000048395e+00,-1.523460618139337050e-16,3.046921236278674100e-16
2.490000000000043734e+00,-1.524685264938481565e-16,3.049370529876963131e-16
2.492000000000039517e+00,-1.525909911737626327e-16,3.051819823475252655e-16
2.494000000000035744e+00,-1.527134558536771336e-16,3.054269117073542672e-16
2.496000000000032415e+00,-1.528359205335916591e-16,3.056718410671833182e-16
2.498000000000029086e+00,-1.529583852135061846e-16,3.059167704270123692e-16
2.500000000000026201e+00,-1.530808498934207594e-16,3.061616997868415189e-16
2.502000000000023761e+00,-1.532033145733353342e-16,3.064066291466706685e-16
2.504000000000021320e+00,-1.533257792532499337e-16,3.066515585064998674e-16
