ref_pos_lat (deg),ref_pos_lon (deg),ref_pos_alt (m)
3.200000000000000000e+01,1.199999999999999858e+02,0.000000000000000000e+00
3.200000018036410410e+01,1.199999999999999858e+02,-2.449293598294706384e-18
3.200000036072820819e+01,1.200000000000110845e+02,-4.898587196589412767e-18
3.200000054109231229e+01,1.200000000000432152e+02,-7.347880794884118380e-18
3.200000072145640928e+01,1.200000000001053877e+02,-9.797174393178825534e-18
3.200000090182048496e+01,1.200000000002056595e+02,-1.224646799147353269e-17
3.200000108218455352e+01,1.200000000003513208e+02,-1.469576158976823984e-17
3.200000126254857236e+01,1.200000000005489227e+02,-1.714505518806294700e-17
3.200000144291254855e+01,1.200000000008043344e+02,-1.959434878635765415e-17
3.200000162327644659e+01,1.200000000011228565e+02,-2.204364238465236130e-17
3.200000180364025226e+01,1.200000000015092780e+02,-2.449293598294706846e-17
3.200000198400393003e+01,1.200000000019678623e+02,-2.694222958124177561e-17
3.200000216436745859e+01,1.200000000025025031e+02,-2.939152317953647968e-17
3.200000234473080241e+01,1.200000000031166820e+02,-3.184081677783118684e-17
3.200000252509393306e+01,1.200000000038134971e+02,-3.429011037612589399e-17
3.200000270545680081e+01,1.200000000045957620e+02,-3.673940397442060115e-17
3.200000288581937724e+01,1.200000000054660632e+02,-3.918869757271530830e-17
3.200000306618162682e+01,1.200000000064266459e+02,-4.163799117101001545e-17
3.200000324654349981e+01,1.200000000074795565e+02,-4.408728476930472261e-17
3.200000342690495359e+01,1.200000000086266425e+02,-4.653657836759942976e-17
3.200000360726594550e+01,1.200000000098696091e+02,-4.898587196589413692e-17
3.200000378762643294e+01,1.200000000112099201e+02,-5.143516556418884407e-17
3.200000396798637325e+01,1.200000000126489113e+02,-5.388445916248355122e-17
3.200000414834570250e+01,1.200000000141878047e+02,-5.633375276077825838e-17
3.200000432870439226e+01,1.200000000158277089e+02,-5.878304635907295937e-17
3.200000450906239280e+01,1.200000000175695760e+02,-6.123233995736766036e-17
3.200000468941964726e+01,1.200000000194143297e+02,-6.368163355566236135e-17
3.200000486977609881e+01,1.200000000213627374e+02,-6.613092715395706234e-17
3.200000505013172614e+01,1.200000000234155095e+02,-6.858022075225176333e-17
3.200000523048645107e+01,1.200000000255732999e+02,-7.102951435054646432e-17
3.200000541084024519e+01,1.200000000278366912e+02,-7.347880794884116531e-17
3.200000559119304455e+01,1.200000000302061807e+02,-7.592810154713586630e-17
3.200000577154480652e+01,1.200000000326822800e+02,-7.837739514543056730e-17
3.200000595189547425e+01,1.200000000352654013e+02,-8.082668874372526829e-17
3.200000613224500512e+01,1.200000000379558855e+02,-8.327598234201996928e-17
3.200000631259334938e+01,1.200000000407540881e+02,-8.572527594031467027e-17
3.200000649294045019e+01,1.200000000436603500e+02,-8.817456953860937126e-17
3.200000667328625781e+01,1.200000000466749412e+02,-9.062386313690407225e-17
3.200000685363072250e+01,1.200000000497980892e+02,-9.307315673519877324e-17
3.200000703397379453e+01,1.200000000530300213e+02,-9.552245033349347423e-17
3.200000721431543127e+01,1.200000000563709506e+02,-9.797174393178817522e-17
3.200000739465557587e+01,1.200000000598210335e+02,-1.004210375300828762e-16
3.200000757499417148e+01,1.200000000633804547e+02,-1.028703311283775772e-16
3.200000775533117547e+01,1.200000000670493705e+02,-1.053196247266722782e-16
3.200000793566653101e+01,1.200000000708278662e+02,-1.077689183249669792e-16
3.200000811600019546e+01,1.200000000747161124e+02,-1.102182119232616802e-16
3.200000829633211907e+01,1.200000000787141943e+02,-1.126675055215563935e-16
3.200000847666225212e+01,1.200000000828222255e+02,-1.151167991198510945e-16
3.200000865699053065e+01,1.200000000870402488e+02,-1.175660927181457955e-16
3.200000883731691914e+01,1.200000000913683635e+02,-1.200153863164404965e-16
3.200000901764136785e+01,1.200000000958066693e+02,-1.224646799147351975e-16
3.200000919796381282e+01,1.200000001003551660e+02,-1.249139735130298984e-16
3.200000937828422565e+01,1.200000001050139673e+02,-1.273632671113245994e-16
3.200000955860253526e+01,1.200000001097831159e+02,-1.298125607096193004e-16
3.200000973891869904e+01,1.200000001146626261e+02,-1.322618543079140014e-16
3.200000991923267435e+01,1.200000001196525403e+02,-1.347111479062087024e-16
3.200001009954440434e+01,1.200000001247529298e+02,-1.371604415045034034e-16
3.200001027985383217e+01,1.200000001299637944e+02,-1.396097351027981044e-16
3.200001046016092232e+01,1.200000001352851910e+02,-1.420590287010928054e-16
3.200001064046561794e+01,1.200000001407170913e+02,-1.445083222993875064e-16
3.200001082076787640e+01,1.200000001462595804e+02,-1.469576158976822074e-16
3.200001100106763374e+01,1.200000001519126727e+02,-1.494069094959769084e-16
3.200001118136485445e+01,1.200000001576763395e+02,-1.518562030942716093e-16
3.200001136165947457e+01,1.200000001635506237e+02,-1.543054966925663103e-16
3.200001154195145148e+01,1.200000001695355678e+02,-1.567547902908610113e-16
3.200001172224074253e+01,1.200000001756311434e+02,-1.592040838891557123e-16
3.200001190252729089e+01,1.200000001818373647e+02,-1.616533774874504133e-16
3.200001208281104681e+01,1.200000001881542744e+02,-1.641026710857451143e-16
3.200001226309196767e+01,1.200000001945818724e+02,-1.665519646840398153e-16
3.200001244336999662e+01,1.200000002011201303e+02,-1.690012582823345163e-16
3.200001262364507681e+01,1.200000002077690908e+02,-1.714505518806292173e-16
3.200001280391717984e+01,1.200000002145287397e+02,-1.738998454789239183e-16
3.200001298418623463e+01,1.200000002213990911e+02,-1.763491390772186193e-16
3.200001316445220567e+01,1.200000002283801592e+02,-1.787984326755133202e-16
3.200001334471502901e+01,1.200000002354719300e+02,-1.812477262738080212e-16
3.200001352497467622e+01,1.200000002426744317e+02,-1.836970198721027222e-16
3.200001370523108335e+01,1.200000002499876217e+02,-1.861463134703974232e-16
3.200001388548420067e+01,1.200000002574115427e+02,-1.885956070686921242e-16
3.200001406573398555e+01,1.200000002649461948e+02,-1.910449006669868252e-16
3.200001424598038113e+01,1.200000002725915635e+02,-1.934941942652815262e-16
3.200001442622334480e+01,1.200000002803476491e+02,-1.959434878635762272e-16
3.200001460646281970e+01,1.200000002882144798e+02,-1.983927814618709282e-16
3.200001478669876320e+01,1.200000002961919989e+02,-2.008420750601656292e-16
3.200001496693112557e+01,1.200000003042802490e+02,-2.032913686584603302e-16
3.200001514715984996e+01,1.200000003124792300e+02,-2.057406622567550311e-16
3.200001532738489374e+01,1.200000003207889279e+02,-2.081899558550497321e-16
3.200001550760620717e+01,1.200000003292093567e+02,-2.106392494533444331e-16
3.200001568782373340e+01,1.200000003377405164e+02,-2.130885430516391341e-16
3.200001586803743692e+01,1.200000003463823646e+02,-2.155378366499338351e-16
3.200001604824726087e+01,1.200000003551349579e+02,-2.179871302482285361e-16
3.200001622845314841e+01,1.200000003639982680e+02,-2.204364238465232371e-16
3.200001640865506403e+01,1.200000003729722948e+02,-2.228857174448179381e-16
3.200001658885294376e+01,1.200000003820570242e+02,-2.253350110431126391e-16
3.200001676904675207e+01,1.200000003912524704e+02,-2.277843046414073401e-16
3.200001694923642503e+01,1.200000004005586192e+02,-2.302335982397020411e-16
3.200001712942192711e+01,1.200000004099754705e+02,-2.326828918379967420e-16
3.200001730960320145e+01,1.200000004195030385e+02,-2.351321854362914430e-16
3.200001748978019833e+01,1.200000004291413234e+02,-2.375814790345861440e-16
3.200001766995287511e+01,1.200000004388903108e+02,-2.400307726328808450e-16
3.200001785012117494e+01,1.200000004487499723e+02,-2.424800662311755460e-16
3.200001803028504810e+01,1.200000004587203506e+02,-2.449293598294702470e-16
3.200001821044445194e+01,1.200000004688014172e+02,-2.473786534277649480e-16
3.200001839059932962e+01,1.200000004789931864e+02,-2.498279470260596490e-16
3.200001857074963851e+01,1.200000004892956298e+02,-2.522772406243543500e-16
3.200001875089532177e+01,1.200000004997087757e+02,-2.547265342226490510e-16
3.200001893103633677e+01,1.200000005102325815e+02,-2.571758278209437520e-16
3.200001911117263376e+01,1.200000005208670899e+02,-2.596251214192384529e-16
3.200001929130415590e+01,1.200000005316122724e+02,-2.620744150175331539e-16
3.200001947143086767e+01,1.200000005424681433e+02,-2.645237086158278549e-16
3.200001965155269801e+01,1.200000005534347025e+02,-2.669730022141225559e-16
3.200001983166962560e+01,1.200000005645119074e+02,-2.694222958124172569e-16
3.200002001178157229e+01,1.200000005756997723e+02,-2.718715894107119579e-16
3.200002019188850966e+01,1.200000005869983255e+02,-2.743208830090066589e-16
3.200002037199038085e+01,1.200000005984075102e+02,-2.767701766073013599e-16
3.200002055208713614e+01,1.200000006099273833e+02,-2.792194702055960609e-16
3.200002073217872578e+01,1.200000006215579020e+02,-2.816687638038907619e-16
3.200002091226510714e+01,1.200000006332990949e+02,-2.841180574021854629e-16
3.200002109234621628e+01,1.200000006451509051e+02,-2.865673510004801639e-16
3.200002127242201766e+01,1.200000006571133753e+02,-2.890166445987748648e-16
3.200002145249245444e+01,1.200000006691864769e+02,-2.914659381970695658e-16
3.200002163255748400e+01,1.200000006813702527e+02,-2.939152317953642668e-16
3.200002181261704948e+01,1.200000006936646457e+02,-2.963645253936589678e-16
3.200002199267109404e+01,1.200000007060696419e+02,-2.988138189919536688e-16
3.200002217271959637e+01,1.200000007185853121e+02,-3.012631125902483698e-16
3.200002235276247831e+01,1.200000007312115997e+02,-3.037124061885430708e-16
3.200002253279971143e+01,1.200000007439485046e+02,-3.061616997868377718e-16
3.200002271283123179e+01,1.200000007567960267e+02,-3.086109933851324728e-16
3.200002289285699675e+01,1.200000007697541662e+02,-3.110602869834271738e-16
3.200002307287694947e+01,1.200000007828229229e+02,-3.135095805817218748e-16
3.200002325289105443e+01,1.200000007960022685e+02,-3.159588741800165757e-16
3.200002343289924767e+01,1.200000008092922315e+02,-3.184081677783112767e-16
3.200002361290148656e+01,1.200000008226928259e+02,-3.208574613766059777e-16
3.200002379289772136e+01,1.200000008362039665e+02,-3.233067549749006787e-16
3.200002397288790945e+01,1.200000008498257529e+02,-3.257560485731953797e-16
3.200002415287199398e+01,1.200000008635580855e+02,-3.282053421714900807e-16
3.200002433284991810e+01,1.200000008774010354e+02,-3.306546357697847817e-16
3.200002451282165339e+01,1.200000008913545599e+02,-3.331039293680794827e-16
3.200002469278712880e+01,1.200000009054186734e+02,-3.355532229663741837e-16
3.200002487274630170e+01,1.200000009195933615e+02,-3.380025165646688847e-16
3.200002505269912945e+01,1.200000009338786100e+02,-3.404518101629635857e-16
3.200002523264556231e+01,1.200000009482744332e+02,-3.429011037612582866e-16
3.200002541258554345e+01,1.200000009627808168e+02,-3.453503973595529876e-16
3.200002559251903023e+01,1.200000009773977467e+02,-3.477996909578476886e-16
3.200002577244597290e+01,1.200000009921252513e+02,-3.502489845561423896e-16
3.200002595236630754e+01,1.200000010069633021e+02,-3.526982781544370906e-16
3.200002613228000570e+01,1.200000010219118991e+02,-3.551475717527317916e-16
3.200002631218701055e+01,1.200000010369710424e+02,-3.575968653510264926e-16
3.200002649208726524e+01,1.200000010521407177e+02,-3.600461589493211936e-16
3.200002667198073425e+01,1.200000010674209392e+02,-3.624954525476158946e-16
3.200002685186735363e+01,1.200000010828116928e+02,-3.649447461459105956e-16
3.200002703174708785e+01,1.200000010983129783e+02,-3.673940397442052966e-16
3.200002721161988006e+01,1.200000011139247675e+02,-3.698433333424999975e-16
3.200002739148568054e+01,1.200000011296470888e+02,-3.722926269407946985e-16
3.200002757134443243e+01,1.200000011454799136e+02,-3.747419205390893995e-16
3.200002775119610732e+01,1.200000011614232704e+02,-3.771912141373841005e-16
3.200002793104064125e+01,1.200000011774771025e+02,-3.796405077356788015e-16
3.200002811087798449e+01,1.200000011936414523e+02,-3.820898013339735025e-16
3.200002829070809440e+01,1.200000012099162916e+02,-3.845390949322682035e-16
3.200002847053091415e+01,1.200000012263016487e+02,-3.869883885305629045e-16
3.200002865034639399e+01,1.200000012427974809e+02,-3.894376821288576055e-16
3.200002883015449839e+01,1.200000012594038026e+02,-3.918869757271523065e-16
3.200002900995517052e+01,1.200000012761205568e+02,-3.943362693254470075e-16
3.200002918974834643e+01,1.200000012929478288e+02,-3.967855629237417084e-16
3.200002936953399768e+01,1.200000013098855618e+02,-3.992348565220364094e-16
3.200002954931206745e+01,1.200000013269337700e+02,-4.016841501203311104e-16
3.200002972908249887e+01,1.200000013440924249e+02,-4.041334437186258114e-16
3.200002990884525644e+01,1.200000013613615408e+02,-4.065827373169205124e-16
3.200003008860028331e+01,1.200000013787411035e+02,-4.090320309152152134e-16
3.200003026834752973e+01,1.200000013962310987e+02,-4.114813245135099144e-16
3.200003044808694597e+01,1.200000014138315549e+02,-4.139306181118046154e-16
3.200003062781848939e+01,1.200000014315424437e+02,-4.163799117100993164e-16
3.200003080754211027e+01,1.200000014493637792e+02,-4.188292053083940174e-16
3.200003098725773754e+01,1.200000014672955047e+02,-4.212784989066887184e-16
3.200003116696534988e+01,1.200000014853376769e+02,-4.237277925049834193e-16
3.200003134666489046e+01,1.200000015034902674e+02,-4.261770861032781203e-16
3.200003152635630244e+01,1.200000015217532763e+02,-4.286263797015728213e-16
3.200003170603954317e+01,1.200000015401266751e+02,-4.310756732998675223e-16
3.200003188571456292e+01,1.200000015586104780e+02,-4.335249668981622233e-16
3.200003206538129774e+01,1.200000015772046709e+02,-4.359742604964569243e-16
3.200003224503972632e+01,1.200000015959092536e+02,-4.384235540947516253e-16
3.200003242468977760e+01,1.200000016147242405e+02,-4.408728476930463263e-16
3.200003260433141605e+01,1.200000016336496174e+02,-4.433221412913410273e-16
3.200003278396457773e+01,1.200000016526853415e+02,-4.457714348896357776e-16
3.200003296358922711e+01,1.200000016718314555e+02,-4.482207284879305279e-16
3.200003314320530734e+01,1.200000016910879452e+02,-4.506700220862252782e-16
3.200003332281276869e+01,1.200000017104547680e+02,-4.531193156845200284e-16
3.200003350241156852e+01,1.200000017299319524e+02,-4.555686092828147787e-16
3.200003368200164289e+01,1.200000017495194840e+02,-4.580179028811095290e-16
3.200003386158296337e+01,1.200000017692173770e+02,-4.604671964794042793e-16
3.200003404115546601e+01,1.200000017890255890e+02,-4.629164900776990296e-16
3.200003422071910109e+01,1.200000018089441625e+02,-4.653657836759937799e-16
3.200003440027383306e+01,1.200000018289730548e+02,-4.678150772742885302e-16
3.200003457981959798e+01,1.200000018491122518e+02,-4.702643708725832805e-16
3.200003475935635322e+01,1.200000018693617676e+02,-4.727136644708780308e-16
3.200003493888405615e+01,1.200000018897215881e+02,-4.751629580691727811e-16
3.200003511840264281e+01,1.200000019101917417e+02,-4.776122516674675314e-16
3.200003529791207058e+01,1.200000019307721999e+02,-4.800615452657622817e-16
3.200003547741228971e+01,1.200000019514629344e+02,-4.825108388640570320e-16
3.200003565690325757e+01,1.200000019722639593e+02,-4.849601324623517823e-16
3.200003583638492444e+01,1.200000019931752604e+02,-4.874094260606465326e-16
3.200003601585722635e+01,1.200000020141968520e+02,-4.898587196589412829e-16
3.200003619532012067e+01,1.200000020353287056e+02,-4.923080132572360332e-16
3.200003637477357188e+01,1.200000020565708212e+02,-4.947573068555307835e-16
3.200003655421752313e+01,1.200000020779232131e+02,-4.972066004538255338e-16
3.200003673365191048e+01,1.200000020993858385e+02,-4.996558940521202840e-16
3.200003691307670550e+01,1.200000021209587260e+02,-5.021051876504150343e-16
3.200003709249184425e+01,1.200000021426418755e+02,-5.045544812487097846e-16
3.200003727189728409e+01,1.200000021644352302e+02,-5.070037748470045349e-16
3.200003745129298238e+01,1.200000021863388184e+02,-5.094530684452992852e-16
3.200003763067888229e+01,1.200000022083526687e+02,-5.119023620435940355e-16
3.200003781005492698e+01,1.200000022304767100e+02,-5.143516556418887858e-16
3.200003798942108091e+01,1.200000022527109422e+02,-5.168009492401835361e-16
3.200003816877728724e+01,1.200000022750554081e+02,-5.192502428384782864e-16
3.200003834812350334e+01,1.200000022975100791e+02,-5.216995364367730367e-16
3.200003852745967237e+01,1.200000023200749126e+02,-5.241488300350677870e-16
3.200003870678574458e+01,1.200000023427499514e+02,-5.265981236333625373e-16
3.200003888610168445e+01,1.200000023655351953e+02,-5.290474172316572876e-16
3.200003906540742804e+01,1.200000023884305875e+02,-5.314967108299520379e-16
3.200003924470293271e+01,1.200000024114361707e+02,-5.339460044282467882e-16
3.200003942398814161e+01,1.200000024345518881e+02,-5.363952980265415385e-16
3.200003960326301922e+01,1.200000024577777680e+02,-5.388445916248362888e-16
3.200003978252751580e+01,1.200000024811138246e+02,-5.412938852231310391e-16
3.200003996178156740e+01,1.200000025045600154e+02,-5.437431788214257894e-16
3.200004014102512429e+01,1.200000025281163261e+02,-5.461924724197205396e-16
3.200004032025815803e+01,1.200000025517827709e+02,-5.486417660180152899e-16
3.200004049948060469e+01,1.200000025755593640e+02,-5.510910596163100402e-16
3.200004067869242164e+01,1.200000025994460344e+02,-5.535403532146047905e-16
3.200004085789354491e+01,1.200000026234428390e+02,-5.559896468128995408e-16
3.200004103708393899e+01,1.200000026475497634e+02,-5.584389404111942911e-16
3.200004121626356124e+01,1.200000026717667652e+02,-5.608882340094890414e-16
3.200004139543234771e+01,1.200000026960938584e+02,-5.633375276077837917e-16
3.200004157459025578e+01,1.200000027205310431e+02,-5.657868212060785420e-16
3.200004175373723569e+01,1.200000027450783193e+02,-5.682361148043732923e-16
3.200004193287323773e+01,1.200000027697356302e+02,-5.706854084026680426e-16
3.200004211199821214e+01,1.200000027945030467e+02,-5.731347020009627929e-16
3.200004229111211629e+01,1.200000028193804980e+02,-5.755839955992575432e-16
3.200004247021489334e+01,1.200000028443680122e+02,-5.780332891975522935e-16
3.200004264930650066e+01,1.200000028694655612e+02,-5.804825827958470438e-16
3.200004282838687431e+01,1.200000028946731305e+02,-5.829318763941417941e-16
3.200004300745598584e+01,1.200000029199907630e+02,-5.853811699924365444e-16
3.200004318651377133e+01,1.200000029454184016e+02,-5.878304635907312947e-16
3.200004336556018814e+01,1.200000029709560749e+02,-5.902797571890260450e-16
3.200004354459518652e+01,1.200000029966037260e+02,-5.927290507873207952e-16
3.200004372361870963e+01,1.200000030223614118e+02,-5.951783443856155455e-16
3.200004390263072196e+01,1.200000030482290754e+02,-5.976276379839102958e-16
3.200004408163117375e+01,1.200000030742067167e+02,-6.000769315822050461e-16
3.200004426062000107e+01,1.200000031002943643e+02,-6.025262251804997964e-16
3.200004443959716838e+01,1.200000031264919897e+02,-6.049755187787945467e-16
3.200004461856262594e+01,1.200000031527995503e+02,-6.074248123770892970e-16
3.200004479751630981e+01,1.200000031792170887e+02,-6.098741059753840473e-16
3.200004497645819157e+01,1.200000032057445907e+02,-6.123233995736787976e-16
3.200004515538820726e+01,1.200000032323820136e+02,-6.147726931719735479e-16
3.200004533430631426e+01,1.200000032591293859e+02,-6.172219867702682982e-16
3.200004551321245572e+01,1.200000032859867076e+02,-6.196712803685630485e-16
3.200004569210659611e+01,1.200000033129539361e+02,-6.221205739668577988e-16
3.200004587098868569e+01,1.200000033400310713e+02,-6.245698675651525491e-16
3.200004604985866052e+01,1.200000033672181132e+02,-6.270191611634472994e-16
3.200004622871648507e+01,1.200000033945150619e+02,-6.294684547617420497e-16
3.200004640756210250e+01,1.200000034219219316e+02,-6.319177483600368000e-16
3.200004658639547017e+01,1.200000034494386369e+02,-6.343670419583315503e-16
3.200004676521652414e+01,1.200000034770652633e+02,-6.368163355566263006e-16
3.200004694402524308e+01,1.200000035048017395e+02,-6.392656291549210508e-16
