gps_lat (deg),gps_lon (deg),gps_alt (m),gps_vN (m/s),gps_vE (m/s),gps_vD (m/s)
3.200000000000000000e+01,1.199999999999999858e+02,0.000000000000000000e+00,3.000000000000000000e+00,-1.836970198721029688e-16,3.673940397442059375e-16
3.200000270545092462e+01,1.200000000067917796e+02,-3.673940397442058266e-17,2.999936622851083090e+00,1.950022760989018542e-02,3.673940397442059375e-16
3.200000541070538418e+01,1.200000000444122890e+02,-7.347880794884118997e-17,2.999458658255841126e+00,5.698909908104392297e-02,3.673940397442059375e-16
3.200000811526603428e+01,1.200000001252557098e+02,-1.102182119232618281e-16,2.998308128568925479e+00,1.007390994475715756e-01,3.673940397442059375e-16
3.200001081848891005e+01,1.200000002536276185e+02,-1.469576158976823553e-16,2.996413365012464691e+00,1.466524666505029384e-01,3.673940397442059375e-16
3.200001351969763164e+01,1.200000004310046648e+02,-1.836970198721028701e-16,2.993766522950828790e+00,1.932925401015378186e-01,3.673940397442059375e-16
3.200001621821571973e+01,1.200000006578688243e+02,-2.204364238465233850e-16,2.990372481902668689e+00,2.401508265221495020e-01,3.673940397442059375e-16
3.200001891337146986e+01,1.200000009343473693e+02,-2.571758278209441464e-16,2.986236191818351760e+00,2.870425171890537142e-01,3.673940397442059375e-16
3.200002160449697186e+01,1.200000012604359512e+02,-2.939152317953649078e-16,2.981361045810631438e+00,3.338956641271936254e-01,3.673940397442059375e-16
3.200002429092693745e+01,1.200000016360763482e+02,-3.306546357697856692e-16,2.975749403358792122e+00,3.806776699647516637e-01,3.673940397442059375e-16
3.200002697199796131e+01,1.200000020611836362e+02,-3.673940397442064305e-16,2.969403167354227158e+00,4.273696639990789414e-01,3.673940397442059375e-16
3.200002964704830077e+01,1.200000025356556108e+02,-4.041334437186271919e-16,2.962324124450028684e+00,4.739575737356345186e-01,3.673940397442059375e-16
3.200003231541782611e+01,1.200000030593761551e+02,-4.408728476930479533e-16,2.954514112252109470e+00,5.204290158159243784e-01,3.673940397442059375e-16
3.200003497644812711e+01,1.200000036322163623e+02,-4.776122516674682216e-16,2.945975094341107159e+00,5.667722148464078291e-01,3.673940397442059375e-16
3.200003762948261965e+01,1.200000042540350051e+02,-5.143516556418884900e-16,2.936709192037684879e+00,6.129756287172994922e-01,3.673940397442059375e-16
3.200004027386669492e+01,1.200000049246787199e+02,-5.510910596163087583e-16,2.926718697190293206e+00,6.590278199869498144e-01,3.673940397442059375e-16
3.200004290894788994e+01,1.200000056439820781e+02,-5.878304635907290267e-16,2.916006076970422356e+00,7.049174129439339520e-01,3.673940397442059375e-16
3.200004553407604391e+01,1.200000064117675436e+02,-6.245698675651492950e-16,2.904573975383409667e+00,7.506330804896741427e-01,3.673940397442059375e-16
3.200004814860344737e+01,1.200000072278457424e+02,-6.613092715395695634e-16,2.892425213442240128e+00,7.961635413931057448e-01,3.673940397442059375e-16
3.200005075188499148e+01,1.200000080920153067e+02,-6.980486755139898317e-16,2.879562788789874261e+00,8.414975611471968708e-01,3.673940397442059375e-16
3.200005334327836692e+01,1.200000090040629885e+02,-7.347880794884101001e-16,2.865989875081175420e+00,8.866239540708271694e-01,3.673940397442059375e-16
3.200005592214418471e+01,1.200000099637637732e+02,-7.715274834628303684e-16,2.851709821245900667e+00,9.315315858357532397e-01,3.673940397442059375e-16
3.200005848784613960e+01,1.200000109708808793e+02,-8.082668874372506368e-16,2.836726150679734992e+00,9.762093761328736186e-01,3.673940397442059375e-16
3.200006103975120197e+01,1.200000120251658302e+02,-8.450062914116709051e-16,2.821042560381429976e+00,1.020646301377997611e+00,3.673940397442059375e-16
3.200006357722970307e+01,1.200000131263584677e+02,-8.817456953860911734e-16,2.804662920043038632e+00,1.064831397421984072e+00,3.673940397442059375e-16
3.200006609965557658e+01,1.200000142741871230e+02,-9.184850993605122306e-16,2.787591271096024226e+00,1.108753762252580710e+00,3.673940397442059375e-16
3.200006860640644391e+01,1.200000154683685309e+02,-9.552245033349334851e-16,2.769831825714426987e+00,1.152402558683155886e+00,3.673940397442059375e-16
3.200007109686379891e+01,1.200000167086081149e+02,-9.919639073093547395e-16,2.751388965775694473e+00,1.195767017026207135e+00,3.673940397442059375e-16
3.200007357041317135e+01,1.200000179945998582e+02,-1.028703311283775994e-15,2.732267241779565481e+00,1.238836437750474362e+00,3.673940397442059375e-16
3.200007602644423343e+01,1.200000193260264325e+02,-1.065442715258197248e-15,2.712471371725316605e+00,1.281600194120842140e+00,3.673940397442059375e-16
3.200007846435100589e+01,1.200000207025593539e+02,-1.102182119232618503e-15,2.692006239947674295e+00,1.324047734820306577e+00,3.673940397442059375e-16
3.200008088353197877e+01,1.200000221238589688e+02,-1.138921523207039757e-15,2.670876895911678872e+00,1.366168586553355713e+00,3.673940397442059375e-16
3.200008328339023222e+01,1.200000235895745959e+02,-1.175660927181461012e-15,2.649088552966806454e+00,1.407952356630091995e+00,3.673940397442059375e-16
3.200008566333365678e+01,1.200000250993446116e+02,-1.212400331155882266e-15,2.626646587060652571e+00,1.449388735530473316e+00,3.673940397442059375e-16
3.200008802277503150e+01,1.200000266527964783e+02,-1.249139735130303520e-15,2.603556535412498096e+00,1.490467499448031807e+00,3.673940397442059375e-16
3.200009036113220873e+01,1.200000282495469293e+02,-1.285879139104724775e-15,2.579824095147083440e+00,1.531178512812445547e+00,3.673940397442059375e-16
3.200009267782822064e+01,1.200000298892019828e+02,-1.322618543079146029e-15,2.555455121888927650e+00,1.571511730790338568e+00,3.673940397442059375e-16
3.200009497229145694e+01,1.200000315713570984e+02,-1.359357947053567284e-15,2.530455628317541894e+00,1.611457201763694114e+00,3.673940397442059375e-16
3.200009724395579980e+01,1.200000332955971771e+02,-1.396097351027988538e-15,2.504831782683889063e+00,1.651005069785266066e+00,3.673940397442059375e-16
3.200009949226074468e+01,1.200000350614968596e+02,-1.432836755002409793e-15,2.478589907288461180e+00,1.690145577010387701e+00,3.673940397442059375e-16
3.200010171665156378e+01,1.200000368686203984e+02,-1.469576158976831047e-15,2.451736476921347219e+00,1.728869066104573360e+00,3.673940397442059375e-16
3.200010391657941966e+01,1.200000387165219422e+02,-1.506315562951252301e-15,2.424278117264673238e+00,1.767165982626321075e+00,3.673940397442059375e-16
3.200010609150150742e+01,1.200000406047454931e+02,-1.543054966925673556e-15,2.396221603257816746e+00,1.805026877384527495e+00,3.673940397442059375e-16
3.200010824088119676e+01,1.200000425328252334e+02,-1.579794370900094810e-15,2.367573857425790074e+00,1.842442408769936701e+00,3.673940397442059375e-16
3.200011036418816701e+01,1.200000445002853837e+02,-1.616533774874516065e-15,2.338341948171211104e+00,1.879403345060039143e+00,3.673940397442059375e-16
3.200011246089852790e+01,1.200000465066405297e+02,-1.653273178848937319e-15,2.308533088030282787e+00,1.915900566696864260e+00,3.673940397442059375e-16
3.200011453049494037e+01,1.200000485513956505e+02,-1.690012582823358573e-15,2.278154631893205551e+00,1.951925068537092356e+00,3.673940397442059375e-16
3.200011657246675156e+01,1.200000506340461754e+02,-1.726751986797779828e-15,2.247214075189468030e+00,1.987467962073941052e+00,3.673940397442059375e-16
3.200011858631016537e+01,1.200000527540783111e+02,-1.763491390772201082e-15,2.215719052038463310e+00,2.022520477630269209e+00,3.673940397442059375e-16
3.200012057152826372e+01,1.200000549109689274e+02,-1.800230794746620956e-15,2.183677333365884543e+00,2.057073966522366071e+00,3.673940397442059375e-16
3.200012252763124820e+01,1.200000571041858564e+02,-1.836970198721040239e-15,2.151096824986362677e+00,2.091119903193881857e+00,3.673940397442059375e-16
3.200012445413646134e+01,1.200000593331879770e+02,-1.873709602695459521e-15,2.117985565652828583e+00,2.124649887319383090e+00,3.673940397442059375e-16
3.200012635056858556e+01,1.200000615974252867e+02,-1.910449006669878803e-15,2.084351725073067652e+00,2.157655645877007977e+00,3.673940397442059375e-16
3.200012821645967875e+01,1.200000638963391282e+02,-1.947188410644298085e-15,2.050203601893969552e+00,2.190129035189706030e+00,3.673940397442059375e-16
3.200013005134938737e+01,1.200000662293622895e+02,-1.983927814618717368e-15,2.015549621653959012e+00,2.222062042934576098e+00,3.673940397442059375e-16
3.200013185478496780e+01,1.200000685959191316e+02,-2.020667218593136650e-15,1.980398334704122298e+00,2.253446790119780108e+00,3.673940397442059375e-16
3.200013362632144975e+01,1.200000709954257445e+02,-2.057406622567555932e-15,1.944758414098533228e+00,2.284275533028569782e+00,3.673940397442059375e-16
3.200013536552172866e+01,1.200000734272900615e+02,-2.094146026541975214e-15,1.908638653454310496e+00,2.314540665129933839e+00,3.673940397442059375e-16
3.200013707195669355e+01,1.200000758909120719e+02,-2.130885430516394497e-15,1.872047964781920815e+00,2.344234718955392260e+00,3.673940397442059375e-16
3.200013874520529811e+01,1.200000783856839206e+02,-2.167624834490813779e-15,1.834995376286276958e+00,2.373350367941485572e+00,3.673940397442059375e-16
3.200014038485469570e+01,1.200000809109900644e+02,-2.204364238465233061e-15,1.797490030139159423e+00,2.401880428237493259e+00,3.673940397442059375e-16
3.200014199050032460e+01,1.200000834662073999e+02,-2.241103642439652343e-15,1.759541180223525458e+00,2.429817860477941682e+00,3.673940397442059375e-16
3.200014356174602170e+01,1.200000860507054909e+02,-2.277843046414071626e-15,1.721158189850251485e+00,2.457155771519462739e+00,3.673940397442059375e-16
3.200014509820410780e+01,1.200000886638466540e+02,-2.314582450388490908e-15,1.682350529447874887e+00,2.483887416141572047e+00,3.673940397442059375e-16
3.200014659949547280e+01,1.200000913049860856e+02,-2.351321854362910190e-15,1.643127774225908055e+00,2.510006198710954095e+00,3.673940397442059375e-16
3.200014806524971078e+01,1.200000939734721896e+02,-2.388061258337329473e-15,1.603499601812300224e+00,2.535505674808832932e+00,3.673940397442059375e-16
3.200014949510515549e+01,1.200000966686464920e+02,-2.424800662311748755e-15,1.563475789865624410e+00,2.560379552821038462e+00,3.673940397442059375e-16
3.200015088870902247e+01,1.200000993898440669e+02,-2.461540066286168037e-15,1.523066213662589874e+00,2.584621695490367355e+00,3.673940397442059375e-16
3.200015224571745165e+01,1.200001021363934655e+02,-2.498279470260587319e-15,1.482280843661463177e+00,2.608226121430858857e+00,3.673940397442059375e-16
3.200015356579562109e+01,1.200001049076170005e+02,-2.535018874235006602e-15,1.441129743042007583e+00,2.631187006603612044e+00,3.673940397442059375e-16
3.200015484861783222e+01,1.200001077028309453e+02,-2.571758278209425884e-15,1.399623065222543428e+00,2.653498685753782560e+00,3.673940397442059375e-16
3.200015609386755955e+01,1.200001105213456043e+02,-2.608497682183845166e-15,1.357771051354744962e+00,2.675155653808396483e+00,3.673940397442059375e-16
3.200015730123755020e+01,1.200001133624655267e+02,-2.645237086158264448e-15,1.315584027796789179e+00,2.696152567234646469e+00,3.673940397442059375e-16
3.200015847042992334e+01,1.200001162254897622e+02,-2.681976490132683731e-15,1.273072403565481236e+00,2.716484245358328664e+00,3.673940397442059375e-16
3.200015960115618441e+01,1.200001191097118891e+02,-2.718715894107103013e-15,1.230246667767984636e+00,2.736145671642094435e+00,3.673940397442059375e-16
3.200016069313733880e+01,1.200001220144202421e+02,-2.755455298081522295e-15,1.187117387013792325e+00,2.755131994923210037e+00,3.673940397442059375e-16
3.200016174610396291e+01,1.200001249388981108e+02,-2.792194702055941578e-15,1.143695202807573308e+00,2.773438530610502717e+00,3.673940397442059375e-16
3.200016275979626101e+01,1.200001278824239961e+02,-2.828934106030360860e-15,1.099990828923540054e+00,2.791060761840219229e+00,3.673940397442059375e-16
3.200016373396410785e+01,1.200001308442715384e+02,-2.865673510004780142e-15,1.056015048761986153e+00,2.807994340590489912e+00,3.673940397442059375e-16
3.200016466836714812e+01,1.200001338237100015e+02,-2.902412913979199424e-15,1.011778712688642612e+00,2.824235088754141199e+00,3.673940397442059375e-16
3.200016556277483204e+01,1.200001368200042720e+02,-2.939152317953618707e-15,9.672927353575129228e-01,2.839778999169579876e+00,3.673940397442059375e-16
3.200016641696647213e+01,1.200001398324150017e+02,-2.975891721928037989e-15,9.225680930178459249e-01,2.854622236609498209e+00,3.673940397442059375e-16
3.200016723073130720e+01,1.200001428601989488e+02,-3.012631125902457271e-15,8.776158208059094967e-01,2.868761138727163207e+00,3.673940397442059375e-16
3.200016800386856630e+01,1.200001459026090345e+02,-3.049370529876876553e-15,8.324470100222363111e-01,2.882192216960041353e+00,3.673940397442059375e-16
3.200016873618749003e+01,1.200001489588946129e+02,-3.086109933851295836e-15,7.870728053950124536e-01,2.894912157390552743e+00,3.673940397442059375e-16
3.200016942750736604e+01,1.200001520283015708e+02,-3.122849337825715118e-15,7.415044023302804765e-01,2.906917821563728577e+00,3.673940397442059375e-16
3.200017007765764987e+01,1.200001551100725976e+02,-3.159588741800134400e-15,6.957530441496422302e-01,2.918206247261578845e+00,3.673940397442059375e-16
3.200017068647790808e+01,1.200001582034473131e+02,-3.196328145774553682e-15,6.498300193161361538e-01,2.928774649233974348e+00,3.673940397442059375e-16
3.200017125381793193e+01,1.200001613076624523e+02,-3.233067549748972965e-15,6.037466586489791398e-01,2.938620419885867641e+00,3.673940397442059375e-16
3.200017177953773739e+01,1.200001644219520784e+02,-3.269806953723392247e-15,5.575143325278558715e-01,2.947741129920675274e+00,3.673940397442059375e-16
3.200017226350760069e+01,1.200001675455478392e+02,-3.306546357697811529e-15,5.111444480874471896e-01,2.956134528939672101e+00,3.673940397442059375e-16
3.200017270560812932e+01,1.200001706776789803e+02,-3.343285761672230812e-15,4.646484464028916572e-01,2.963798545997244016e+00,3.673940397442059375e-16
3.200017310573021945e+01,1.200001738175727439e+02,-3.380025165646650094e-15,4.180377996668700469e-01,2.970731290111860989e+00,3.673940397442059375e-16
3.200017346377517669e+01,1.200001769644543543e+02,-3.416764569621069376e-15,3.713240083590146901e-01,2.976931050732649187e+00,3.673940397442059375e-16
3.200017377965462373e+01,1.200001801175473872e+02,-3.453503973595488658e-15,3.245185984083370223e-01,2.982396298161444470e+00,3.673940397442059375e-16
3.200017405329064957e+01,1.200001832760738836e+02,-3.490243377569907941e-15,2.776331183493781496e-01,2.987125683930222486e+00,3.673940397442059375e-16
3.200017428461571711e+01,1.200001864392545201e+02,-3.526982781544327223e-15,2.306791364727801275e-01,2.991118041133812078e+00,3.673940397442059375e-16
3.200017447357276978e+01,1.200001896063087798e+02,-3.563722185518746900e-15,1.836682379709834723e-01,2.994372384717811642e+00,3.673940397442059375e-16
3.200017462011517466e+01,1.200001927764552647e+02,-3.600461589493166182e-15,1.366120220797543139e-01,2.996887911721637821e+00,3.673940397442059375e-16
3.200017472420677223e+01,1.200001959489118235e+02,-3.637200993467585464e-15,8.952209921624654232e-02,2.998664001476643470e+00,3.673940397442059375e-16
3.200017478582188346e+01,1.200001991228956228e+02,-3.673940397442004746e-15,4.241008811430507786e-02,2.999700215759257382e+00,3.673940397442059375e-16
3.200017480494531696e+01,1.200002022976236162e+02,-3.710679801416424029e-15,-4.712387042282809371e-03,2.999996298899111125e+00,3.673940397442059375e-16
3.200017478157233342e+01,1.200002054723124303e+02,-3.747419205390843311e-15,-5.183369948788096870e-02,2.999552177842119249e+00,3.673940397442059375e-16
3.200017471570871663e+01,1.200002086461787627e+02,-3.784158609365262593e-15,-9.894222274373480619e-02,2.998367962168507539e+00,3.673940397442059375e-16
3.200017460737070252e+01,1.200002118184395243e+02,-3.820898013339681875e-15,-1.460263334866308826e-01,2.996443944065774190e+00,3.673940397442059375e-16
3.200017445658502879e+01,1.200002149883119671e+02,-3.857637417314101158e-15,-1.930744144167780563e-01,2.993780598256595482e+00,3.673940397442059375e-16
3.200017426338890658e+01,1.200002181550140392e+02,-3.894376821288520440e-15,-2.400748571242024010e-01,2.990378581881697695e+00,3.673940397442059375e-16
3.200017402782999909e+01,1.200002213177643284e+02,-3.931116225262939722e-15,-2.870160649529485131e-01,2.986238734337716139e+00,3.673940397442059375e-16
3.200017374996642872e+01,1.200002244757825451e+02,-3.967855629237359005e-15,-3.338864558623810819e-01,2.981362077070086158e+00,3.673940397442059375e-16
3.200017342986674862e+01,1.200002276282894229e+02,-4.004595033211778287e-15,-3.806744652848799149e-01,2.975749813321017179e+00,3.673940397442059375e-16
3.200017306760993563e+01,1.200002307745071590e+02,-4.041334437186197569e-15,-4.273685489792239944e-01,2.969403327832612405e+00,3.673940397442059375e-16
3.200017266328538312e+01,1.200002339136594856e+02,-4.078073841160616851e-15,-4.739571858789604075e-01,2.962324186505200352e+00,3.673940397442059375e-16
3.200017221699284420e+01,1.200002370449718399e+02,-4.114813245135036134e-15,-5.204288809350546829e-01,2.954514136010976344e+00,3.673940397442059375e-16
3.200017172884243877e+01,1.200002401676716346e+02,-4.151552649109455416e-15,-5.667721679521228184e-01,2.945975103363036141e+00,3.673940397442059375e-16
3.200017119895460382e+01,1.200002432809883572e+02,-4.188292053083874698e-15,-6.129756124175427257e-01,2.936709195439912712e+00,3.673940397442059375e-16
3.200017062746009344e+01,1.200002463841538827e+02,-4.225031457058293980e-15,-6.590278143227497054e-01,2.926718698465736956e+00,3.673940397442059375e-16
3.200017001449990772e+01,1.200002494764025158e+02,-4.261770861032713263e-15,-7.049174109760173446e-01,2.916006077446147593e+00,3.673940397442059375e-16
3.200016936022527858e+01,1.200002525569713043e+02,-4.298510265007132545e-15,-7.506330798060323328e-01,2.904573975560083898e+00,3.673940397442059375e-16
3.200016866479764843e+01,1.200002556251001664e+02,-4.335249668981551827e-15,-7.961635411555690878e-01,2.892425213507623827e+00,3.673940397442059375e-16
3.200016792838859914e+01,1.200002586800320756e+02,-4.371989072955971109e-15,-8.414975610645765158e-01,2.879562788814018504e+00,3.673940397442059375e-16
3.200016715117983779e+01,1.200002617210132740e+02,-4.408728476930390392e-15,-8.866239540419895704e-01,2.865989875090096728e+00,3.673940397442059375e-16
3.200016633336311145e+01,1.200002647472934711e+02,-4.445467880904809674e-15,-9.315315858255819315e-01,2.851709821249223342e+00,3.673940397442059375e-16
3.200016547514022136e+01,1.200002677581259434e+02,-4.482207284879228956e-15,-9.762093761291779082e-01,2.836726150681006864e+00,3.673940397442059375e-16
3.200016457672290926e+01,1.200002707527678183e+02,-4.518946688853648239e-15,-1.020646301376548770e+00,2.821042560381954001e+00,3.673940397442059375e-16
3.200016363833285027e+01,1.200002737304802025e+02,-4.555686092828067521e-15,-1.064831397421313053e+00,2.804662920043293539e+00,3.673940397442059375e-16
3.200016266020158184e+01,1.200002766905284091e+02,-4.592425496802486803e-15,-1.108753762252178365e+00,2.787591271096184542e+00,3.673940397442059375e-16
3.200016164257043982e+01,1.200002796321820853e+02,-4.629164900776906085e-15,-1.152402558682846356e+00,2.769831825714555773e+00,3.673940397442059375e-16
3.200016058569050159e+01,1.200002825547154117e+02,-4.665904304751325368e-15,-1.195767017025929135e+00,2.751388965775815265e+00,3.673940397442059375e-16
3.200015948982255765e+01,1.200002854574073154e+02,-4.702643708725744650e-15,-1.238836437750206798e+00,2.732267241779686717e+00,3.673940397442059375e-16
3.200015835523697660e+01,1.200002883395415694e+02,-4.739383112700163932e-15,-1.281600194120577019e+00,2.712471371725441838e+00,3.673940397442059375e-16
3.200015718221370520e+01,1.200002912004070765e+02,-4.776122516674583214e-15,-1.324047734820043454e+00,2.692006239947803969e+00,3.673940397442059375e-16
