ref_pos_lat (deg),ref_pos_lon (deg),ref_pos_alt (m)
3.200000000000000000e+01,1.199999999999999858e+02,0.000000000000000000e+00
3.200000027054615259e+01,1.199999999999999858e+02,-3.673940397442059190e-18
3.200000054109231229e+01,1.200000000000498659e+02,-7.347880794884118380e-18
3.200000081163843646e+01,1.200000000001944898e+02,-1.102182119232617757e-17
3.200000108218448958e+01,1.200000000004742446e+02,-1.469576158976823676e-17
3.200000135273037216e+01,1.200000000009255388e+02,-1.836970198721029441e-17
3.200000162327594921e+01,1.200000000015810286e+02,-2.204364238465235206e-17
3.200000189382104310e+01,1.200000000024701876e+02,-2.571758278209440971e-17
3.200000216436542644e+01,1.200000000036195331e+02,-2.939152317953646736e-17
3.200000243490882212e+01,1.200000000050528968e+02,-3.306546357697852501e-17
3.200000270545092462e+01,1.200000000067917796e+02,-3.673940397442058266e-17
3.200000297599135735e+01,1.200000000088554231e+02,-4.041334437186264031e-17
3.200000324652975081e+01,1.200000000112612923e+02,-4.408728476930469796e-17
3.200000351706565738e+01,1.200000000140249909e+02,-4.776122516674675560e-17
3.200000378759861519e+01,1.200000000171606160e+02,-5.143516556418881325e-17
3.200000405812814108e+01,1.200000000206808437e+02,-5.510910596163087090e-17
3.200000432865370925e+01,1.200000000245970568e+02,-5.878304635907293472e-17
3.200000459917478679e+01,1.200000000289195299e+02,-6.245698675651499853e-17
3.200000486969081948e+01,1.200000000336574857e+02,-6.613092715395706234e-17
3.200000514020121045e+01,1.200000000388192518e+02,-6.980486755139912615e-17
3.200000541070538418e+01,1.200000000444122890e+02,-7.347880794884118997e-17
3.200000568120271538e+01,1.200000000504433046e+02,-7.715274834628325378e-17
3.200000595169260009e+01,1.200000000569183811e+02,-8.082668874372531759e-17
3.200000622217439883e+01,1.200000000638429611e+02,-8.450062914116738140e-17
3.200000649264746500e+01,1.200000000712219190e+02,-8.817456953860944521e-17
3.200000676311117331e+01,1.200000000790596459e+02,-9.184850993605150903e-17
3.200000703356484166e+01,1.200000000873601635e+02,-9.552245033349357284e-17
3.200000730400783056e+01,1.200000000961269677e+02,-9.919639073093563665e-17
3.200000757443947208e+01,1.200000001053632985e+02,-1.028703311283777005e-16
3.200000784485909833e+01,1.200000001150719982e+02,-1.065442715258197643e-16
3.200000811526603428e+01,1.200000001252557098e+02,-1.102182119232618281e-16
3.200000838565961203e+01,1.200000001359166930e+02,-1.138921523207038919e-16
3.200000865603915656e+01,1.200000001470570794e+02,-1.175660927181459434e-16
3.200000892640399286e+01,1.200000001586787306e+02,-1.212400331155879949e-16
3.200000919675343880e+01,1.200000001707833661e+02,-1.249139735130300464e-16
3.200000946708681226e+01,1.200000001833724355e+02,-1.285879139104720978e-16
3.200000973740344534e+01,1.200000001964473313e+02,-1.322618543079141493e-16
3.200001000770264881e+01,1.200000002100092473e+02,-1.359357947053562008e-16
3.200001027798374764e+01,1.200000002240593062e+02,-1.396097351027982523e-16
3.200001054824605973e+01,1.200000002385984885e+02,-1.432836755002403038e-16
3.200001081848891005e+01,1.200000002536276185e+02,-1.469576158976823553e-16
3.200001108871161648e+01,1.200000002691475345e+02,-1.506315562951244068e-16
3.200001135891349691e+01,1.200000002851589045e+02,-1.543054966925664583e-16
3.200001162909388341e+01,1.200000003016623680e+02,-1.579794370900085097e-16
3.200001189925207967e+01,1.200000003186584365e+02,-1.616533774874505612e-16
3.200001216938742488e+01,1.200000003361476786e+02,-1.653273178848926127e-16
3.200001243949923690e+01,1.200000003541304778e+02,-1.690012582823346642e-16
3.200001270958684074e+01,1.200000003726072606e+02,-1.726751986797767157e-16
3.200001297964956137e+01,1.200000003915783537e+02,-1.763491390772187672e-16
3.200001324968670957e+01,1.200000004110440699e+02,-1.800230794746608187e-16
3.200001351969763164e+01,1.200000004310046648e+02,-1.836970198721028701e-16
3.200001378968163124e+01,1.200000004514603944e+02,-1.873709602695449216e-16
3.200001405963805468e+01,1.200000004724114433e+02,-1.910449006669869731e-16
3.200001432956622693e+01,1.200000004938580247e+02,-1.947188410644290246e-16
3.200001459946545879e+01,1.200000005158002381e+02,-1.983927814618710761e-16
3.200001486933509653e+01,1.200000005382382824e+02,-2.020667218593131276e-16
3.200001513917444385e+01,1.200000005611722287e+02,-2.057406622567551791e-16
3.200001540898286123e+01,1.200000005846022049e+02,-2.094146026541972305e-16
3.200001567875965947e+01,1.200000006085282394e+02,-2.130885430516392820e-16
3.200001594850417064e+01,1.200000006329504174e+02,-2.167624834490813335e-16
3.200001621821571973e+01,1.200000006578688243e+02,-2.204364238465233850e-16
3.200001648789364594e+01,1.200000006832834600e+02,-2.241103642439654611e-16
3.200001675753727426e+01,1.200000007091943530e+02,-2.277843046414075373e-16
3.200001702714594387e+01,1.200000007356015459e+02,-2.314582450388496134e-16
3.200001729671897266e+01,1.200000007625050245e+02,-2.351321854362916896e-16
3.200001756625570692e+01,1.200000007899047603e+02,-2.388061258337337657e-16
3.200001783575546455e+01,1.200000008178008244e+02,-2.424800662311758418e-16
3.200001810521758472e+01,1.200000008461931316e+02,-2.461540066286179180e-16
3.200001837464140664e+01,1.200000008750816676e+02,-2.498279470260599941e-16
3.200001864402625529e+01,1.200000009044664324e+02,-2.535018874235020703e-16
3.200001891337146986e+01,1.200000009343473693e+02,-2.571758278209441464e-16
3.200001918267637535e+01,1.200000009647244639e+02,-2.608497682183862225e-16
3.200001945194031094e+01,1.200000009955976168e+02,-2.645237086158282987e-16
3.200001972116260873e+01,1.200000010269668564e+02,-2.681976490132703748e-16
3.200001999034260791e+01,1.200000010588320833e+02,-2.718715894107124509e-16
3.200002025947963347e+01,1.200000010911932407e+02,-2.755455298081545271e-16
3.200002052857302459e+01,1.200000011240502857e+02,-2.792194702055966032e-16
3.200002079762212759e+01,1.200000011574031475e+02,-2.828934106030386794e-16
3.200002106662626034e+01,1.200000011912517550e+02,-2.865673510004807555e-16
3.200002133558476203e+01,1.200000012255960513e+02,-2.902412913979228316e-16
3.200002160449697186e+01,1.200000012604359512e+02,-2.939152317953649078e-16
3.200002187336222903e+01,1.200000012957713977e+02,-2.975891721928069839e-16
3.200002214217986563e+01,1.200000013316023058e+02,-3.012631125902490600e-16
3.200002241094921374e+01,1.200000013679286184e+02,-3.049370529876911362e-16
3.200002267966961966e+01,1.200000014047502077e+02,-3.086109933851332123e-16
3.200002294834040129e+01,1.200000014420670169e+02,-3.122849337825752885e-16
3.200002321696091911e+01,1.200000014798789749e+02,-3.159588741800173646e-16
3.200002348553049103e+01,1.200000015181859681e+02,-3.196328145774594407e-16
3.200002375404845623e+01,1.200000015569879110e+02,-3.233067549749015169e-16
3.200002402251416811e+01,1.200000015962847613e+02,-3.269806953723435930e-16
3.200002429092693745e+01,1.200000016360763482e+02,-3.306546357697856692e-16
3.200002455928612477e+01,1.200000016763626292e+02,-3.343285761672277453e-16
3.200002482759106215e+01,1.200000017171435189e+02,-3.380025165646698214e-16
3.200002509584107457e+01,1.200000017584188754e+02,-3.416764569621118976e-16
3.200002536403551545e+01,1.200000018001886275e+02,-3.453503973595539737e-16
3.200002563217371687e+01,1.200000018424526758e+02,-3.490243377569960498e-16
3.200002590025501092e+01,1.200000018852109065e+02,-3.526982781544381260e-16
3.200002616827875102e+01,1.200000019284632202e+02,-3.563722185518802021e-16
3.200002643624426213e+01,1.200000019722095317e+02,-3.600461589493222783e-16
3.200002670415088346e+01,1.200000020164496988e+02,-3.637200993467643544e-16
3.200002697199796131e+01,1.200000020611836362e+02,-3.673940397442064305e-16
3.200002723978483488e+01,1.200000021064112303e+02,-3.710679801416485067e-16
3.200002750751083624e+01,1.200000021521323958e+02,-3.747419205390905828e-16
3.200002777517530461e+01,1.200000021983469765e+02,-3.784158609365326590e-16
3.200002804277758628e+01,1.200000022450548727e+02,-3.820898013339747351e-16
3.200002831031701334e+01,1.200000022922559850e+02,-3.857637417314168112e-16
3.200002857779293208e+01,1.200000023399501998e+02,-3.894376821288588874e-16
3.200002884520468172e+01,1.200000023881373892e+02,-3.931116225263009635e-16
3.200002911255160143e+01,1.200000024368174252e+02,-3.967855629237430396e-16
3.200002937983302331e+01,1.200000024859902084e+02,-4.004595033211851158e-16
3.200002964704830077e+01,1.200000025356556108e+02,-4.041334437186271919e-16
3.200002991419676590e+01,1.200000025858135189e+02,-4.078073841160692681e-16
3.200003018127776500e+01,1.200000026364637762e+02,-4.114813245135113442e-16
3.200003044829063015e+01,1.200000026876062975e+02,-4.151552649109534203e-16
3.200003071523472187e+01,1.200000027392409265e+02,-4.188292053083954965e-16
3.200003098210935804e+01,1.200000027913675780e+02,-4.225031457058375726e-16
3.200003124891388495e+01,1.200000028439860671e+02,-4.261770861032796488e-16
3.200003151564766313e+01,1.200000028970963086e+02,-4.298510265007217249e-16
3.200003178231001044e+01,1.200000029506981463e+02,-4.335249668981638010e-16
3.200003204890028741e+01,1.200000030047914663e+02,-4.371989072956058772e-16
3.200003231541782611e+01,1.200000030593761551e+02,-4.408728476930479533e-16
3.200003258186197286e+01,1.200000031144520136e+02,-4.445467880904899801e-16
3.200003284823206684e+01,1.200000031700189425e+02,-4.482207284879320070e-16
3.200003311452744725e+01,1.200000032260768279e+02,-4.518946688853740338e-16
3.200003338074746040e+01,1.200000032826254852e+02,-4.555686092828160606e-16
3.200003364689145968e+01,1.200000033396648149e+02,-4.592425496802580875e-16
3.200003391295877719e+01,1.200000033971946749e+02,-4.629164900777001143e-16
3.200003417894875923e+01,1.200000034552148804e+02,-4.665904304751421411e-16
3.200003444486075210e+01,1.200000035137253320e+02,-4.702643708725841680e-16
3.200003471069408789e+01,1.200000035727258734e+02,-4.739383112700261948e-16
3.200003497644812711e+01,1.200000036322163623e+02,-4.776122516674682216e-16
3.200003524212220185e+01,1.200000036921966142e+02,-4.812861920649102485e-16
3.200003550771566552e+01,1.200000037526665437e+02,-4.849601324623522753e-16
3.200003577322785020e+01,1.200000038136259661e+02,-4.886340728597943022e-16
3.200003603865811641e+01,1.200000038750747109e+02,-4.923080132572363290e-16
3.200003630400580334e+01,1.200000039370126785e+02,-4.959819536546783558e-16
3.200003656927025020e+01,1.200000039994396701e+02,-4.996558940521203827e-16
3.200003683445081748e+01,1.200000040623555719e+02,-5.033298344495624095e-16
3.200003709954683018e+01,1.200000041257601850e+02,-5.070037748470044363e-16
3.200003736455764880e+01,1.200000041896533816e+02,-5.106777152444464632e-16
3.200003762948261965e+01,1.200000042540350051e+02,-5.143516556418884900e-16
3.200003789432107482e+01,1.200000043189048853e+02,-5.180255960393305168e-16
3.200003815907237481e+01,1.200000043842628656e+02,-5.216995364367725437e-16
3.200003842373585883e+01,1.200000044501088041e+02,-5.253734768342145705e-16
3.200003868831088027e+01,1.200000045164425018e+02,-5.290474172316565973e-16
3.200003895279678545e+01,1.200000045832637880e+02,-5.327213576290986242e-16
3.200003921719292066e+01,1.200000046505725635e+02,-5.363952980265406510e-16
3.200003948149862509e+01,1.200000047183686149e+02,-5.400692384239826778e-16
3.200003974571325926e+01,1.200000047866517576e+02,-5.437431788214247047e-16
3.200004000983616237e+01,1.200000048554218637e+02,-5.474171192188667315e-16
3.200004027386669492e+01,1.200000049246787199e+02,-5.510910596163087583e-16
3.200004053780418900e+01,1.200000049944222269e+02,-5.547650000137507852e-16
3.200004080164799802e+01,1.200000050646521430e+02,-5.584389404111928120e-16
3.200004106539748250e+01,1.200000051353683119e+02,-5.621128808086348388e-16
3.200004132905198162e+01,1.200000052065706058e+02,-5.657868212060768657e-16
3.200004159261084169e+01,1.200000052782587687e+02,-5.694607616035188925e-16
3.200004185607342322e+01,1.200000053504326871e+02,-5.731347020009609193e-16
3.200004211943906540e+01,1.200000054230921478e+02,-5.768086423984029462e-16
3.200004238270712165e+01,1.200000054962369944e+02,-5.804825827958449730e-16
3.200004264587694536e+01,1.200000055698670138e+02,-5.841565231932869998e-16
3.200004290894788994e+01,1.200000056439820781e+02,-5.878304635907290267e-16
3.200004317191929459e+01,1.200000057185819600e+02,-5.915044039881710535e-16
3.200004343479052693e+01,1.200000057936664888e+02,-5.951783443856130804e-16
3.200004369756092615e+01,1.200000058692354798e+02,-5.988522847830551072e-16
3.200004396022984565e+01,1.200000059452887484e+02,-6.025262251804971340e-16
3.200004422279663885e+01,1.200000060218260955e+02,-6.062001655779391609e-16
3.200004448526065914e+01,1.200000060988473507e+02,-6.098741059753811877e-16
3.200004474762125284e+01,1.200000061763523291e+02,-6.135480463728232145e-16
3.200004500987778755e+01,1.200000062543408035e+02,-6.172219867702652414e-16
3.200004527202959537e+01,1.200000063328126174e+02,-6.208959271677072682e-16
3.200004553407604391e+01,1.200000064117675436e+02,-6.245698675651492950e-16
3.200004579601648658e+01,1.200000064912054398e+02,-6.282438079625913219e-16
3.200004605785026968e+01,1.200000065711260646e+02,-6.319177483600333487e-16
3.200004631957675372e+01,1.200000066515292048e+02,-6.355916887574753755e-16
3.200004658119527789e+01,1.200000067324147182e+02,-6.392656291549174024e-16
3.200004684270521693e+01,1.200000068137823774e+02,-6.429395695523594292e-16
3.200004710410592423e+01,1.200000068956319694e+02,-6.466135099498014560e-16
3.200004736539673900e+01,1.200000069779633094e+02,-6.502874503472434829e-16
3.200004762657702884e+01,1.200000070607761984e+02,-6.539613907446855097e-16
3.200004788764614716e+01,1.200000071440704232e+02,-6.576353311421275365e-16
3.200004814860344737e+01,1.200000072278457424e+02,-6.613092715395695634e-16
3.200004840944828999e+01,1.200000073121020279e+02,-6.649832119370115902e-16
3.200004867018002130e+01,1.200000073968389955e+02,-6.686571523344536170e-16
3.200004893079800183e+01,1.200000074820564890e+02,-6.723310927318956439e-16
3.200004919130159919e+01,1.200000075677542668e+02,-6.760050331293376707e-16
3.200004945169015969e+01,1.200000076539321583e+02,-6.796789735267796975e-16
3.200004971196304382e+01,1.200000077405898793e+02,-6.833529139242217244e-16
3.200004997211961211e+01,1.200000078277272877e+02,-6.870268543216637512e-16
3.200005023215921796e+01,1.200000079153441419e+02,-6.907007947191057780e-16
3.200005049208122898e+01,1.200000080034402146e+02,-6.943747351165478049e-16
3.200005075188499148e+01,1.200000080920153067e+02,-6.980486755139898317e-16
3.200005101156987308e+01,1.200000081810691768e+02,-7.017226159114318586e-16
3.200005127113522718e+01,1.200000082706016116e+02,-7.053965563088738854e-16
3.200005153058041429e+01,1.200000083606124122e+02,-7.090704967063159122e-16
3.200005178990480204e+01,1.200000084511013227e+02,-7.127444371037579391e-16
3.200005204910773671e+01,1.200000085420681586e+02,-7.164183775011999659e-16
3.200005230818858593e+01,1.200000086335126781e+02,-7.200923178986419927e-16
3.200005256714671731e+01,1.200000087254346255e+02,-7.237662582960840196e-16
3.200005282598148426e+01,1.200000088178338302e+02,-7.274401986935260464e-16
3.200005308469224019e+01,1.200000089107100223e+02,-7.311141390909680732e-16
3.200005334327836692e+01,1.200000090040629885e+02,-7.347880794884101001e-16
3.200005360173921787e+01,1.200000090978924874e+02,-7.384620198858521269e-16
3.200005386007414643e+01,1.200000091921983056e+02,-7.421359602832941537e-16
3.200005411828252022e+01,1.200000092869802018e+02,-7.458099006807361806e-16
3.200005437636370687e+01,1.200000093822379199e+02,-7.494838410781782074e-16
3.200005463431705977e+01,1.200000094779712612e+02,-7.531577814756202342e-16
3.200005489214196075e+01,1.200000095741799839e+02,-7.568317218730622611e-16
3.200005514983775612e+01,1.200000096708638182e+02,-7.605056622705042879e-16
3.200005540740381349e+01,1.200000097680225650e+02,-7.641796026679463147e-16
3.200005566483950048e+01,1.200000098656559686e+02,-7.678535430653883416e-16
3.200005592214418471e+01,1.200000099637637732e+02,-7.715274834628303684e-16
3.200005617931722668e+01,1.200000100623457655e+02,-7.752014238602723952e-16
3.200005643635799402e+01,1.200000101614016756e+02,-7.788753642577144221e-16
3.200005669326584723e+01,1.200000102609312904e+02,-7.825493046551564489e-16
3.200005695004015394e+01,1.200000103609343114e+02,-7.862232450525984757e-16
3.200005720668028886e+01,1.200000104614105538e+02,-7.898971854500405026e-16
3.200005746318561251e+01,1.200000105623597335e+02,-7.935711258474825294e-16
3.200005771955549250e+01,1.200000106637815946e+02,-7.972450662449245562e-16
3.200005797578929645e+01,1.200000107656759241e+02,-8.009190066423665831e-16
3.200005823188639198e+01,1.200000108680424376e+02,-8.045929470398086099e-16
3.200005848784613960e+01,1.200000109708808793e+02,-8.082668874372506368e-16
3.200005874366792824e+01,1.200000110741910220e+02,-8.119408278346926636e-16
3.200005899935111131e+01,1.200000111779725955e+02,-8.156147682321346904e-16
3.200005925489504932e+01,1.200000112822253584e+02,-8.192887086295767173e-16
3.200005951029913120e+01,1.200000113869490406e+02,-8.229626490270187441e-16
3.200005976556272458e+01,1.200000114921433720e+02,-8.266365894244607709e-16
3.200006002068518285e+01,1.200000115978080828e+02,-8.303105298219027978e-16
3.200006027566588784e+01,1.200000117039429597e+02,-8.339844702193448246e-16
3.200006053050421428e+01,1.200000118105477327e+02,-8.376584106167868514e-16
3.200006078519952979e+01,1.200000119176220892e+02,-8.413323510142288783e-16
3.200006103975120197e+01,1.200000120251658302e+02,-8.450062914116709051e-16
3.200006129415860556e+01,1.200000121331786431e+02,-8.486802318091129319e-16
3.200006154842110817e+01,1.200000122416602579e+02,-8.523541722065549588e-16
3.200006180253809873e+01,1.200000123506104472e+02,-8.560281126039969856e-16
3.200006205650893065e+01,1.200000124600288984e+02,-8.597020530014390124e-16
3.200006231033299287e+01,1.200000125699153841e+02,-8.633759933988810393e-16
3.200006256400963878e+01,1.200000126802696201e+02,-8.670499337963230661e-16
3.200006281753826443e+01,1.200000127910913079e+02,-8.707238741937650929e-16
3.200006307091823743e+01,1.200000129023801918e+02,-8.743978145912071198e-16
3.200006332414892540e+01,1.200000130141360017e+02,-8.780717549886491466e-16
3.200006357722970307e+01,1.200000131263584677e+02,-8.817456953860911734e-16
3.200006383015996647e+01,1.200000132390473055e+02,-8.854196357835332003e-16
3.200006408293906190e+01,1.200000133522022026e+02,-8.890935761809752271e-16
3.200006433556638541e+01,1.200000134658229314e+02,-8.927675165784173526e-16
3.200006458804131171e+01,1.200000135799092078e+02,-8.964414569758594780e-16
3.200006484036320842e+01,1.200000136944607192e+02,-9.001153973733016034e-16
3.200006509253145737e+01,1.200000138094771813e+02,-9.037893377707437289e-16
3.200006534454544749e+01,1.200000139249583668e+02,-9.074632781681858543e-16
3.200006559640454640e+01,1.200000140409039346e+02,-9.111372185656279798e-16
3.200006584810812882e+01,1.200000141573136148e+02,-9.148111589630701052e-16
3.200006609965557658e+01,1.200000142741871230e+02,-9.184850993605122306e-16
3.200006635104627151e+01,1.200000143915241324e+02,-9.221590397579543561e-16
3.200006660227960253e+01,1.200000145093244299e+02,-9.258329801553964815e-16
3.200006685335493017e+01,1.200000146275876745e+02,-9.295069205528386070e-16
3.200006710427164336e+01,1.200000147463135960e+02,-9.331808609502807324e-16
3.200006735502913813e+01,1.200000148655018677e+02,-9.368548013477228579e-16
3.200006760562676789e+01,1.200000149851522337e+02,-9.405287417451649833e-16
3.200006785606393578e+01,1.200000151052643815e+02,-9.442026821426071087e-16
3.200006810634001653e+01,1.200000152258380126e+02,-9.478766225400492342e-16
3.200006835645439196e+01,1.200000153468728428e+02,-9.515505629374913596e-16
3.200006860640644391e+01,1.200000154683685309e+02,-9.552245033349334851e-16
3.200006885619556130e+01,1.200000155903248356e+02,-9.588984437323756105e-16
