ref_vel_x (m/s),ref_vel_y (m/s),ref_vel_z (m/s)
2.000000000000000000e+00,-1.224646799147353207e-16,2.449293598294706414e-16
2.001999999999999780e+00,-1.225871445946500434e-16,2.451742891893000869e-16
2.005799999999999805e+00,-1.228198274864880437e-16,2.456396549729760875e-16
2.011219999999999786e+00,-1.231517067690569692e-16,2.463034135381139384e-16
2.018097999999999725e+00,-1.235728628032837445e-16,2.471457256065674891e-16
2.026288199999999762e+00,-1.240743679140025749e-16,2.481487358280051499e-16
2.035659379999999796e+00,-1.246481871935642647e-16,2.492963743871285295e-16
2.046093441999999651e+00,-1.252870892250844960e-16,2.505741784501689919e-16
2.057484097799999745e+00,-1.259845657333674687e-16,2.519691314667349374e-16
2.069735688019999742e+00,-1.267347592707368669e-16,2.534695185414737338e-16
2.082762119217999697e+00,-1.275323981342840652e-16,2.550647962685681304e-16
2.096485907296199880e+00,-1.283727377913912936e-16,2.567454755827825872e-16
2.110837316566579691e+00,-1.292515081627025021e-16,2.585030163254050042e-16
2.125753584909921834e+00,-1.301648661767973470e-16,2.603297323535946940e-16
2.141178226418929853e+00,-1.311093530693974523e-16,2.622187061387949046e-16
2.157060403777036672e+00,-1.320818559526522723e-16,2.641637119053045446e-16
2.173354363399333078e+00,-1.330795732274963404e-16,2.661591464549926808e-16
2.190018927059399712e+00,-1.340999834547707318e-16,2.681999669095414636e-16
2.207017034353459639e+00,-1.351408173392324290e-16,2.702816346784648580e-16
2.224315330918113620e+00,-1.362000325151626890e-16,2.724000650303253781e-16
2.241883797826302427e+00,-1.372757908534146532e-16,2.745515817068293064e-16
2.259695418043672355e+00,-1.383664380377561683e-16,2.767328760755123366e-16
2.277725876239305336e+00,-1.394704851835782744e-16,2.789409703671565487e-16
2.295953288615374621e+00,-1.405865922947328999e-16,2.811731845894657999e-16
2.314357959753837068e+00,-1.417135533746867684e-16,2.834271067493735368e-16
2.332922163778453406e+00,-1.428502830265600122e-16,2.857005660531200244e-16
2.351629947400608156e+00,-1.439958043931606765e-16,2.879916087863213531e-16
2.370466952660547300e+00,-1.451492383030159947e-16,2.902984766060319894e-16
2.389420257394492708e+00,-1.463097935018005136e-16,2.926195870036010272e-16
2.408478231655043267e+00,-1.474767578606213034e-16,2.949535157212426067e-16
2.427630408489538816e+00,-1.486494904634747664e-16,2.972989809269495329e-16
2.446867367640584767e+00,-1.498274144859576084e-16,2.996548289719152168e-16
2.466180630876526170e+00,-1.510100107861069037e-16,3.020200215722138074e-16
2.485562567788873523e+00,-1.521968121361559971e-16,3.043936242723119942e-16
2.505006311009986053e+00,-1.533873980311149409e-16,3.067747960622298817e-16
2.524505679908987332e+00,-1.545813900164927006e-16,3.091627800329854013e-16
2.544055111918088752e+00,-1.557784474832474516e-16,3.115568949664949031e-16
2.563649600726279676e+00,-1.569782638832414230e-16,3.139565277664828460e-16
2.583284640653651820e+00,-1.581805633231507520e-16,3.163611266463015041e-16
2.602956176588286485e+00,-1.593850974989838808e-16,3.187701949979677615e-16
2.622660558929457597e+00,-1.605916429371484169e-16,3.211832858742968338e-16
2.642394503036511910e+00,-1.617999985114112739e-16,3.235999970228225478e-16
2.662155052732860572e+00,-1.630099832081625432e-16,3.260199664163250865e-16
2.681939547459574413e+00,-1.642214341151534306e-16,3.284428682303068612e-16
2.701745592713616695e+00,-1.654342046113599741e-16,3.308684092227199482e-16
2.721571033442255150e+00,-1.666481627378605860e-16,3.332963254757211720e-16
2.741413930098029361e+00,-1.678631897316258693e-16,3.357263794632517386e-16
2.761272537088226287e+00,-1.690791787059293765e-16,3.381583574118587531e-16
2.781145283379403477e+00,-1.702960334627172459e-16,3.405920669254344919e-16
2.801030755041463038e+00,-1.715136674237410930e-16,3.430273348474821861e-16
2.820927679537316823e+00,-1.727320026685772905e-16,3.454640053371545809e-16
2.840834911583585143e+00,-1.739509690688445810e-16,3.479019381376891620e-16
2.860751420425226677e+00,-1.751705035089998899e-16,3.503410070179997798e-16
2.880676278382703792e+00,-1.763905491850543906e-16,3.527810983701087812e-16
2.900608650544433509e+00,-1.776110549734181960e-16,3.552221099468363920e-16
2.920547785489989945e+00,-1.788319748628603559e-16,3.576639497257207119e-16
2.940493006940990917e+00,-1.800532674432730275e-16,3.601065348865460550e-16
2.960443706246891793e+00,-1.812748954455591571e-16,3.625497908911183142e-16
2.980399335622202717e+00,-1.824968253275314359e-16,3.649936506550628719e-16
3.000359402059982195e+00,-1.837190269012211775e-16,3.674380538024423551e-16
3.020323461853983815e+00,-1.849414729974567072e-16,3.698829459949134143e-16
3.040291115668585231e+00,-1.861641391639834263e-16,3.723282783279668525e-16
3.060262004101726774e+00,-1.873870033937722036e-16,3.747740067875444071e-16
3.080235803691553809e+00,-1.886100458804968259e-16,3.772200917609936517e-16
3.100212223322398319e+00,-1.898332487984637210e-16,3.796664975969274420e-16
3.120191000990158336e+00,-1.910565961045486814e-16,3.821131922090973627e-16
3.140171900891142620e+00,-1.922800733599398635e-16,3.845601467198797270e-16
3.160154710802028255e+00,-1.935036675697066773e-16,3.870073351394133545e-16
3.180139239721825550e+00,-1.947273670384115422e-16,3.894547340768230845e-16
3.200125315749642763e+00,-1.959511612401606582e-16,3.919023224803213165e-16
3.220112784174678389e+00,-1.971750407016495829e-16,3.943500814032991657e-16
3.240101505757210454e+00,-1.983989968969043624e-16,3.967979937938087249e-16
3.260091355181489181e+00,-1.996230221525483843e-16,3.992460443050967686e-16
3.280082219663340126e+00,-2.008471095625427587e-16,4.016942191250855175e-16
3.300073997697006156e+00,-2.020712529114524135e-16,4.041425058229048271e-16
3.320066597927305629e+00,-2.032954466053858576e-16,4.065908932107717152e-16
3.340059938134575024e+00,-2.045196856098406825e-16,4.090393712196813650e-16
3.360053944321117481e+00,-2.057439653937647698e-16,4.114879307875295396e-16
3.380048549889005827e+00,-2.069682818792111883e-16,4.139365637584223766e-16
3.400043694900105162e+00,-2.081926313960277001e-16,4.163852627920554001e-16
3.420039325410094477e+00,-2.094170106410772612e-16,4.188340212821545223e-16
3.440035392869084774e+00,-2.106414166415366135e-16,4.212828332830732270e-16
3.460031853582176353e+00,-2.118658467218647805e-16,4.237316934437295610e-16
3.480028668223958732e+00,-2.130902984740748683e-16,4.261805969481497366e-16
3.500025801401562831e+00,-2.143147697309786897e-16,4.286295394619573795e-16
3.520023221261406654e+00,-2.155392585421068592e-16,4.310785170842137183e-16
3.540020899135265964e+00,-2.167637631520369344e-16,4.335275263040738687e-16
3.560018809221739300e+00,-2.179882819808887568e-16,4.359765639617775136e-16
3.580016928299565304e+00,-2.192128136067701025e-16,4.384256272135402050e-16
3.600015235469608665e+00,-2.204373567499780659e-16,4.408747134999561318e-16
3.620013711922647648e+00,-2.216619102587799656e-16,4.433238205175599312e-16
3.640012340730383045e+00,-2.228864730966164424e-16,4.457729461932328847e-16
3.660011106657344637e+00,-2.241110443305839424e-16,4.482220886611678849e-16
3.680009995991610161e+00,-2.253356231210694793e-16,4.506712462421389586e-16
3.700008996392448957e+00,-2.265602087124211704e-16,4.531204174248423409e-16
3.720008096753204097e+00,-2.277848004245524645e-16,4.555696008491049290e-16
3.740007287077883547e+00,-2.290093976453852976e-16,4.580187952907705952e-16
3.760006558370095231e+00,-2.302339998240496194e-16,4.604679996480992389e-16
3.780005902533085660e+00,-2.314586064647622762e-16,4.629172129295245524e-16
3.800005312279777225e+00,-2.326832171213183949e-16,4.653664342426367899e-16
3.820004781051799636e+00,-2.339078313921335900e-16,4.678156627842671800e-16
3.840004302946619763e+00,-2.351324489157820672e-16,4.702648978315641343e-16
3.860003872651957657e+00,-2.363570693669803848e-16,4.727141387339607697e-16
3.880003485386761763e+00,-2.375816924529735836e-16,4.751633849059471672e-16
3.900003136848085639e+00,-2.388063179102822690e-16,4.776126358205645380e-16
3.920002823163276862e+00,-2.400309455017747544e-16,4.800618910035495088e-16
3.940002540846949231e+00,-2.412555750140327583e-16,4.825111500280655166e-16
3.960002286762254187e+00,-2.424802062549796944e-16,4.849604125099593889e-16
3.980002058086028693e+00,-2.437048390517466547e-16,4.874096781034933095e-16
4.000001852277425662e+00,-2.449294732487516812e-16,4.898589464975033624e-16
4.020001667049682759e+00,-2.461541087059708784e-16,4.923082174119417568e-16
4.040001500344714280e+00,-2.473787452973829279e-16,4.947574905947658559e-16
4.060001350310242785e+00,-2.486033829095685149e-16,4.972067658191370299e-16
4.080001215279218663e+00,-2.498280214404503202e-16,4.996560428809006404e-16
4.100001093751296288e+00,-2.510526607981585888e-16,5.021053215963171776e-16
4.120000984376166464e+00,-2.522773009000108371e-16,5.045546018000216741e-16
4.140000885938549757e+00,-2.535019416715925832e-16,5.070038833431851664e-16
4.160000797344694412e+00,-2.547265830459308676e-16,5.094531660918617353e-16
4.180000717610225180e+00,-2.559512249627500611e-16,5.119024499255001222e-16
4.200000645849202741e+00,-2.571758673678021221e-16,5.143517347356042441e-16
4.220000581264282680e+00,-2.584005102122637095e-16,5.168010204245274190e-16
4.240000523137854138e+00,-2.596251534521937919e-16,5.192503069043875838e-16
4.260000470824068408e+00,-2.608497970480456381e-16,5.216995940960912762e-16
4.280000423741661564e+00,-2.620744409642270766e-16,5.241488819284541532e-16
4.300000381367495628e+00,-2.632990851687050792e-16,5.265981703374101584e-16
4.320000343230746331e+00,-2.645237296326500339e-16,5.290474592653000677e-16
4.340000308907671744e+00,-2.657483743301152207e-16,5.314967486602304414e-16
4.360000278016904929e+00,-2.669730192377486313e-16,5.339460384754972626e-16
4.380000250215214663e+00,-2.681976643345334334e-16,5.363953286690668668e-16
4.400000225193693382e+00,-2.694223096015545175e-16,5.388446192031090350e-16
4.420000202674324363e+00,-2.706469550217881666e-16,5.412939100435763332e-16
4.440000182406891760e+00,-2.718716005799132228e-16,5.437432011598264456e-16
4.460000164166202374e+00,-2.730962462621404961e-16,5.461924925242809922e-16
4.480000147749581885e+00,-2.743208920560597254e-16,5.486417841121194507e-16
4.500000132974623313e+00,-2.755455379505018234e-16,5.510910759010036469e-16
4.520000119677161088e+00,-2.767701839354144344e-16,5.535403678708288689e-16
4.540000107709444954e+00,-2.779948300017505071e-16,5.559896600035010141e-16
4.560000096938500391e+00,-2.792194761413677642e-16,5.584389522827355283e-16
4.580000087244650686e+00,-2.804441223469379838e-16,5.608882446938759676e-16
4.600000078520185554e+00,-2.816687686118659436e-16,5.633375372237318872e-16
4.620000070668167425e+00,-2.828934149302158597e-16,5.657868298604317195e-16
4.640000063601350533e+00,-2.841180612966454675e-16,5.682361225932909351e-16
4.660000057241215465e+00,-2.853427077063468570e-16,5.706854154126937140e-16
4.680000051517094306e+00,-2.865673541549928796e-16,5.731347083099857591e-16
4.700000046365384598e+00,-2.877920006386889782e-16,5.755840012773779564e-16
4.720000041728845908e+00,-2.890166471539302439e-16,5.780332943078604879e-16
4.740000037555961221e+00,-2.902412936975620713e-16,5.804825873951241426e-16
4.760000033800364960e+00,-2.914659402667454978e-16,5.829318805334909957e-16
4.780000030420328727e+00,-2.926905868589253044e-16,5.853811737178506089e-16
4.800000027378295897e+00,-2.939152334718019123e-16,5.878304669436038245e-16
4.820000024640465952e+00,-2.951398801033054982e-16,5.902797602066109964e-16
4.840000022176419670e+00,-2.963645267515735617e-16,5.927290535031471234e-16
4.860000019958778061e+00,-2.975891734149295268e-16,5.951783468298590535e-16
4.880000017962900394e+00,-2.988138200918645983e-16,5.976276401837291966e-16
4.900000016166610628e+00,-3.000384667810209495e-16,6.000769335620418991e-16
4.920000014549949618e+00,-3.012631134811763391e-16,6.025262269623526781e-16
4.940000013094954845e+00,-3.024877601912309469e-16,6.049755203824618937e-16
4.960000011785459684e+00,-3.037124069101948511e-16,6.074248138203897022e-16
4.980000010606913996e+00,-3.049370536371771321e-16,6.098741072743542641e-16
5.000000009546222479e+00,-3.061617003713758632e-16,6.123234007427517265e-16
5.020000008591599894e+00,-3.073863471120694342e-16,6.147726942241388683e-16
5.040000007732439613e+00,-3.086109938586083658e-16,6.172219877172167316e-16
5.060000006959195495e+00,-3.098356406104081615e-16,6.196712812208163230e-16
5.080000006263276191e+00,-3.110602873669427497e-16,6.221205747338854993e-16
5.100000005636948330e+00,-3.122849341277386165e-16,6.245698682554772331e-16
5.120000005073253924e+00,-3.135095808923696293e-16,6.270191617847392586e-16
5.140000004565928649e+00,-3.147342276604522536e-16,6.294684553209045073e-16
5.160000004109336125e+00,-3.159588744316414122e-16,6.319177488632828244e-16
5.180000003698402189e+00,-3.171835212056262939e-16,6.343670424112525877e-16
5.200000003328561604e+00,-3.184081679821274446e-16,6.368163359642548891e-16
5.220000002995705657e+00,-3.196328147608932670e-16,6.392656295217865341e-16
5.240000002696135084e+00,-3.208574615416972102e-16,6.417149230833944205e-16
5.260000002426521881e+00,-3.220821083243355016e-16,6.441642166486710032e-16
5.280000002183869334e+00,-3.233067551086246816e-16,6.466135102172493632e-16
5.300000001965482710e+00,-3.245314018943996811e-16,6.490628037887993622e-16
5.320000001768934617e+00,-3.257560486815119478e-16,6.515120973630238955e-16
5.340000001592041023e+00,-3.269806954698277203e-16,6.539613909396554407e-16
5.360000001432837280e+00,-3.282053422592266482e-16,6.564106845184532965e-16
5.380000001289553246e+00,-3.294299890496003617e-16,6.588599780992007234e-16
5.400000001160598195e+00,-3.306546358408514857e-16,6.613092716817029714e-16
5.420000001044538607e+00,-3.318792826328922595e-16,6.637585652657845189e-16
5.440000000940084846e+00,-3.331039294256436490e-16,6.662078588512872980e-16
5.460000000846076063e+00,-3.343285762190346568e-16,6.686571524380693137e-16
5.480000000761468648e+00,-3.355532230130012866e-16,6.711064460260025732e-16
5.500000000685322021e+00,-3.367778698074860007e-16,6.735557396149720015e-16
5.520000000616789748e+00,-3.380025166024369810e-16,6.760050332048739620e-16
5.540000000555110660e+00,-3.392271633978075860e-16,6.784543267956151719e-16
5.560000000499599970e+00,-3.404518101935558581e-16,6.809036203871117161e-16
5.580000000449640396e+00,-3.416764569896440799e-16,6.833529139792881599e-16
5.600000000404676825e+00,-3.429011037860381826e-16,6.858022075720763652e-16
5.620000000364209214e+00,-3.441257505827076470e-16,6.882515011654152941e-16
5.640000000327788143e+00,-3.453503973796248631e-16,6.907007947592497262e-16
5.660000000295009492e+00,-3.465750441767650803e-16,6.931500883535301606e-16
5.680000000265508220e+00,-3.477996909741060133e-16,6.955993819482120265e-16
5.700000000238957476e+00,-3.490243377716275954e-16,6.980486755432551908e-16
5.720000000215061497e+00,-3.502489845693117322e-16,7.004979691386234643e-16
5.740000000193555607e+00,-3.514736313671422520e-16,7.029472627342845039e-16
5.760000000174199997e+00,-3.526982781651044129e-16,7.053965563302088258e-16
5.780000000156779727e+00,-3.539229249631850509e-16,7.078458499263701018e-16
5.800000000141102063e+00,-3.551475717613724316e-16,7.102951435227448632e-16
5.820000000126992035e+00,-3.563722185596558069e-16,7.127444371193116137e-16
5.840000000114293321e+00,-3.575968653580255624e-16,7.151937307160511247e-16
5.860000000102863815e+00,-3.588215121564730700e-16,7.176430243129461399e-16
5.880000000092577395e+00,-3.600461589549905890e-16,7.200923179099811780e-16
5.900000000083319485e+00,-3.612708057535710197e-16,7.225416115071420393e-16
5.920000000074987945e+00,-3.624954525522082483e-16,7.249909051044164967e-16
5.940000000067489516e+00,-3.637200993508964571e-16,7.274401987017929143e-16
5.960000000060740710e+00,-3.649447461496305678e-16,7.298894922992611355e-16
5.980000000054666920e+00,-3.661693929484059950e-16,7.323387858968119900e-16
6.000000000049200644e+00,-3.673940397472186466e-16,7.347880794944372932e-16
6.020000000044280597e+00,-3.686186865460647262e-16,7.372373730921294524e-16
6.040000000039852601e+00,-3.698433333449409304e-16,7.396866666898818608e-16
6.060000000035867807e+00,-3.710679801438443010e-16,7.421359602876886020e-16
6.080000000032280916e+00,-3.722926269427720277e-16,7.445852538855440554e-16
6.100000000029052849e+00,-3.735172737417216946e-16,7.470345474834433892e-16
6.120000000026148079e+00,-3.747419205406911816e-16,7.494838410813823632e-16
6.140000000023533744e+00,-3.759665673396784673e-16,7.519331346793569346e-16
6.160000000021180533e+00,-3.771912141386817274e-16,7.543824282773634548e-16
6.180000000019062689e+00,-3.784158609376993842e-16,7.568317218753987685e-16
6.200000000017156232e+00,-3.796405077367300080e-16,7.592810154734600159e-16
6.220000000015440733e+00,-3.808651545357723167e-16,7.617303090715446334e-16
6.240000000013896653e+00,-3.820898013348251271e-16,7.641796026696502543e-16
6.260000000012507115e+00,-3.833144481338874039e-16,7.666288962677748078e-16
6.280000000011256134e+00,-3.845390949329581610e-16,7.690781898659163219e-16
6.300000000010130385e+00,-3.857637417320365601e-16,7.715274834640731202e-16
6.320000000009117436e+00,-3.869883885311219110e-16,7.739767770622438221e-16
6.340000000008205738e+00,-3.882130353302134250e-16,7.764260706604268499e-16
6.360000000007385523e+00,-3.894376821293105595e-16,7.788753642586211191e-16
6.380000000006647021e+00,-3.906623289284126738e-16,7.813246578568253476e-16
6.400000000005982237e+00,-3.918869757275193240e-16,7.837739514550386480e-16
6.420000000005384067e+00,-3.931116225266300664e-16,7.862232450532601328e-16
6.440000000004845404e+00,-3.943362693257444080e-16,7.886725386514888160e-16
6.460000000004360921e+00,-3.955609161248621023e-16,7.911218322497242045e-16
6.480000000003925287e+00,-3.967855629239828041e-16,7.935711258479656081e-16
6.500000000003533174e+00,-3.980102097231061189e-16,7.960204194462122379e-16
6.520000000003180141e+00,-3.992348565222318497e-16,7.984697130444636994e-16
6.540000000002862635e+00,-4.004595033213597992e-16,8.009190066427195983e-16
6.560000000002576215e+00,-4.016841501204896222e-16,8.033683002409792443e-16
6.580000000002319105e+00,-4.029087969196212201e-16,8.058175938392424402e-16
6.600000000002087752e+00,-4.041334437187543957e-16,8.082668874375087915e-16
6.620000000001879492e+00,-4.053580905178890012e-16,8.107161810357780024e-16
6.640000000001691660e+00,-4.065827373170248393e-16,8.131654746340496785e-16
6.660000000001522480e+00,-4.078073841161618606e-16,8.156147682323237212e-16
6.680000000001370175e+00,-4.090320309152998680e-16,8.180640618305997361e-16
6.700000000001232969e+00,-4.102566777144388122e-16,8.205133554288776245e-16
6.720000000001109974e+00,-4.114813245135786439e-16,8.229626490271572878e-16
6.740000000000999414e+00,-4.127059713127192151e-16,8.254119426254384302e-16
6.760000000000899512e+00,-4.139306181118604766e-16,8.278612362237209532e-16
6.780000000000809379e+00,-4.151552649110022804e-16,8.303105298220045608e-16
6.800000000000729017e+00,-4.163799117101447252e-16,8.327598234202894504e-16
6.820000000000656648e+00,-4.176045585092876630e-16,8.352091170185753260e-16
6.840000000000591385e+00,-4.188292053084309952e-16,8.376584106168619904e-16
6.860000000000532339e+00,-4.200538521075747219e-16,8.401077042151494438e-16
6.880000000000479510e+00,-4.212784989067188430e-16,8.425569978134376860e-16
6.900000000000432010e+00,-4.225031457058633092e-16,8.450062914117266184e-16
6.920000000000388951e+00,-4.237277925050080219e-16,8.474555850100160439e-16
6.940000000000350333e+00,-4.249524393041530305e-16,8.499048786083060610e-16
6.960000000000315268e+00,-4.261770861032982363e-16,8.523541722065964726e-16
6.980000000000283755e+00,-4.274017329024436393e-16,8.548034658048872786e-16
7.000000000000255795e+00,-4.286263797015892888e-16,8.572527594031785776e-16
7.020000000000230500e+00,-4.298510265007350862e-16,8.597020530014701724e-16
7.040000000000207869e+00,-4.310756732998810809e-16,8.621513465997621617e-16
