ref_vel_x (m/s),ref_vel_y (m/s),ref_vel_z (m/s)
2.000000000000000000e+00,-1.224646799147353207e-16,2.449293598294706414e-16
1.999999989033772962e+00,2.094395098563016941e-04,2.449293598294706414e-16
1.999999907774030694e+00,6.073745703578793502e-04,2.449293598294706414e-16
1.999999654869813570e+00,1.174955584856732802e-03,2.449293598294706414e-16
1.999999102037128829e+00,1.895217844515913186e-03,2.449293598294706414e-16
1.999998105394138914e+00,2.752892997261446005e-03,2.449293598294706414e-16
1.999996513861040492e+00,3.734239371637433375e-03,2.449293598294706414e-16
1.999994175276504693e+00,4.826889272973903036e-03,2.449293598294706414e-16
1.999990940747678581e+00,6.019711555859298333e-03,2.449293598294706414e-16
1.999986667642754679e+00,7.302687945504259502e-03,2.449293598294706414e-16
1.999981221548773780e+00,8.666801732738276323e-03,2.449293598294706414e-16
1.999974477448370314e+00,1.010393760462470654e-02,2.449293598294706414e-16
1.999966320314209733e+00,1.160679149635100542e-02,2.449293598294706414e-16
1.999956645276121714e+00,1.316878946148854028e-02,2.449293598294706414e-16
1.999945357481196506e+00,1.478401465804606886e-02,2.449293598294706414e-16
1.999932371739588710e+00,1.644714163808819185e-02,2.449293598294706414e-16
1.999917612027023228e+00,1.815337721000239227e-02,2.449293598294706414e-16
1.999901010897859210e+00,1.989840721568315526e-02,2.449293598294706414e-16
1.999882508849118112e+00,2.167834863076145355e-02,2.449293598294706414e-16
1.999862053665363515e+00,2.348970645527810597e-02,2.449293598294706414e-16
1.999839599766125575e+00,2.532933491551866631e-02,2.449293598294706414e-16
1.999815107571242701e+00,2.719440254571797722e-02,2.449293598294706414e-16
1.999788542894607390e+00,2.908236076151963709e-02,2.449293598294706414e-16
1.999759876373102596e+00,3.099091557591751242e-02,2.449293598294706414e-16
1.999729082934708080e+00,3.291800214337470970e-02,2.449293598294706414e-16
1.999696141307665265e+00,3.486176184925848798e-02,2.449293598294706414e-16
1.999661033571058288e+00,3.682052169004115805e-02,2.449293598294706414e-16
1.999623744746073850e+00,3.879277571518374712e-02,2.449293598294706414e-16
1.999584262426425729e+00,4.077716832453424922e-02,2.449293598294706414e-16
1.999542576445930919e+00,4.277247923570131477e-02,2.449293598294706414e-16
1.999498678580901023e+00,4.477760995442071207e-02,2.449293598294706414e-16
1.999452562284842916e+00,4.679157159763033813e-02,2.449293598294706414e-16
1.999404222452902280e+00,4.881347393400344015e-02,2.449293598294706414e-16
1.999353655213498282e+00,5.084251552021709641e-02,2.449293598294706414e-16
1.999300857744670701e+00,5.287797482339785804e-02,2.449293598294706414e-16
1.999245828112764745e+00,5.491920223114916955e-02,2.449293598294706414e-16
1.999188565131222672e+00,5.696561286042141348e-02,2.449293598294706414e-16
1.999129068237391893e+00,5.901668008535375376e-02,2.449293598294706414e-16
1.999067337385418419e+00,6.107192971221369476e-02,2.449293598294706414e-16
1.999003372953449098e+00,6.313093473673278555e-02,2.449293598294706414e-16
1.998937175663525467e+00,6.519331062561604939e-02,2.449293598294706414e-16
1.998868746512693528e+00,6.725871106981808067e-02,2.449293598294706414e-16
1.998798086714001387e+00,6.932682416242273715e-02,2.449293598294706414e-16
1.998725197646184393e+00,7.139736895867432320e-02,2.449293598294706414e-16
1.998650080810966179e+00,7.347009237995064113e-02,2.449293598294706414e-16
1.998572737797012167e+00,7.554476642729886227e-02,2.449293598294706414e-16
1.998493170249682871e+00,7.762118567357746690e-02,2.449293598294706414e-16
1.998411379845823843e+00,7.969916500635397527e-02,2.449293598294706414e-16
1.998327368272921456e+00,8.177853759648498477e-02,2.449293598294706414e-16
1.998241137212026564e+00,8.385915306981832351e-02,2.449293598294706414e-16
1.998152688323923565e+00,8.594087586170652548e-02,2.449293598294706414e-16
1.998062023238083018e+00,8.802358373605387309e-02,2.449293598294706414e-16
1.997969143543991466e+00,9.010716645244729039e-02,2.449293598294706414e-16
1.997874050784506306e+00,9.219152456656601324e-02,2.449293598294706414e-16
1.997776746450925511e+00,9.427656835054130935e-02,2.449293598294706414e-16
1.997677231979503087e+00,9.636221682127744936e-02,2.449293598294706414e-16
1.997575508749175555e+00,9.844839686593510886e-02,2.449293598294706414e-16
1.997471578080298737e+00,1.005350424548640542e-01,2.449293598294706414e-16
1.997365441234216554e+00,1.026220939332429666e-01,2.449293598294706414e-16
1.997257099413514148e+00,1.047094973835527992e-01,2.449293598294706414e-16
1.997146553762822352e+00,1.067972040518026106e-01,2.449293598294706414e-16
1.997033805370065362e+00,1.088851698311370797e-01,2.449293598294706414e-16
1.996918855268055459e+00,1.109733547970797596e-01,2.449293598294706414e-16
1.996801704436353075e+00,1.130617227892578430e-01,2.449293598294706414e-16
1.996682353803326482e+00,1.151502410349530131e-01,2.449293598294706414e-16
1.996560804248351806e+00,1.172388798103029817e-01,2.449293598294706414e-16
1.996437056604106530e+00,1.193276121353808450e-01,2.449293598294706414e-16
1.996311111658914728e+00,1.214164134997725714e-01,2.449293598294706414e-16
1.996182970159114278e+00,1.235052616155968147e-01,2.449293598294706414e-16
1.996052632811413208e+00,1.255941361952271906e-01,2.449293598294706414e-16
1.995920100285221821e+00,1.276830187512432158e-01,2.449293598294706414e-16
1.995785373214932878e+00,1.297718924163890064e-01,2.449293598294706414e-16
1.995648452202146261e+00,1.318607417815389760e-01,2.449293598294706414e-16
1.995509337817818807e+00,1.339495527498691940e-01,2.449293598294706414e-16
1.995368030604337539e+00,1.360383124056133985e-01,2.449293598294706414e-16
1.995224531077507413e+00,1.381270088959462572e-01,2.449293598294706414e-16
1.995078839728450681e+00,1.402156313246802899e-01,2.449293598294706414e-16
1.994930957025417229e+00,1.423041696565950642e-01,2.449293598294706414e-16
1.994780883415500972e+00,1.443926146313348757e-01,2.449293598294706414e-16
1.994628619326268337e+00,1.464809576859200380e-01,2.449293598294706414e-16
1.994474165167293922e+00,1.485691908850078624e-01,2.449293598294706414e-16
1.994317521331609777e+00,1.506573068581291142e-01,2.449293598294706414e-16
1.994158688197067653e+00,1.527452987432019182e-01,2.449293598294706414e-16
1.993997666127619528e+00,1.548331601356981446e-01,2.449293598294706414e-16
1.993834455474514877e+00,1.569208850428926716e-01,2.449293598294706414e-16
1.993669056577425325e+00,1.590084678426884612e-01,2.449293598294706414e-16
1.993501469765491363e+00,1.610959032465624774e-01,2.449293598294706414e-16
1.993331695358302680e+00,1.631831862662179167e-01,2.449293598294706414e-16
1.993159733666808986e+00,1.652703121835704392e-01,2.449293598294706414e-16
1.992985584994170667e+00,1.673572765237395787e-01,2.449293598294706414e-16
1.992809249636546820e+00,1.694440750307396326e-01,2.449293598294706414e-16
1.992630727883830444e+00,1.715307036456040490e-01,2.449293598294706414e-16
1.992450020020327672e+00,1.736171584866989248e-01,2.449293598294706414e-16
1.992267126325390381e+00,1.757034358320031242e-01,2.449293598294706414e-16
1.992082047073999940e+00,1.777895321031644493e-01,2.449293598294706414e-16
1.991894782537308561e+00,1.798754438511497578e-01,2.449293598294706414e-16
1.991705332983140897e+00,1.819611677433295993e-01,2.449293598294706414e-16
1.991513698676455224e+00,1.840467005518577059e-01,2.449293598294706414e-16
1.991319879879772214e+00,1.861320391432107479e-01,2.449293598294706414e-16
1.991123876853568397e+00,1.882171804687762517e-01,2.449293598294706414e-16
1.990925689856640535e+00,1.903021215563822921e-01,2.449293598294706414e-16
1.990725319146440686e+00,1.923868595026738681e-01,2.449293598294706414e-16
1.990522764979385961e+00,1.944713914662528631e-01,2.449293598294706414e-16
1.990318027611141627e+00,1.965557146615046491e-01,2.449293598294706414e-16
1.990111107296884896e+00,1.986398263530424202e-01,2.449293598294706414e-16
1.989902004291544291e+00,2.007237238507075527e-01,2.449293598294706414e-16
1.989690718850021911e+00,2.028074045050706486e-01,2.449293598294706414e-16
1.989477251227396826e+00,2.048908657033820802e-01,2.449293598294706414e-16
1.989261601679112479e+00,2.069741048659286264e-01,2.449293598294706414e-16
1.989043770461147220e+00,2.090571194427557622e-01,2.449293598294706414e-16
1.988823757830173955e+00,2.111399069107160464e-01,2.449293598294706414e-16
1.988601564043702252e+00,2.132224647708146903e-01,2.449293598294706414e-16
1.988377189360213126e+00,2.153047905458203293e-01,2.449293598294706414e-16
1.988150634039279163e+00,2.173868817781156315e-01,2.449293598294706414e-16
1.987921898341676874e+00,2.194687360277619015e-01,2.449293598294706414e-16
1.987690982529488393e+00,2.215503508707597768e-01,2.449293598294706414e-16
1.987457886866194734e+00,2.236317238974816490e-01,2.449293598294706414e-16
1.987222611616761947e+00,2.257128527112632066e-01,2.449293598294706414e-16
1.986985157047718387e+00,2.277937349271350609e-01,2.449293598294706414e-16
1.986745523427227988e+00,2.298743681706821307e-01,2.449293598294706414e-16
1.986503711025153995e+00,2.319547500770170745e-01,2.449293598294706414e-16
1.986259720113120464e+00,2.340348782898565294e-01,2.449293598294706414e-16
1.986013550964566221e+00,2.361147504606901648e-01,2.449293598294706414e-16
1.985765203854794825e+00,2.381943642480339463e-01,2.449293598294706414e-16
1.985514679061020527e+00,2.402737173167565909e-01,2.449293598294706414e-16
1.985261976862410016e+00,2.423528073374756064e-01,2.449293598294706414e-16
1.985007097540120613e+00,2.444316319860131703e-01,2.449293598294706414e-16
1.984750041377334906e+00,2.465101889429063275e-01,2.449293598294706414e-16
1.984490808659292282e+00,2.485884758929660376e-01,2.449293598294706414e-16
1.984229399673318683e+00,2.506664905248830455e-01,2.449293598294706414e-16
1.983965814708851694e+00,2.527442305308709725e-01,2.449293598294706414e-16
1.983700054057466078e+00,2.548216936063451010e-01,2.449293598294706414e-16
1.983432118012894430e+00,2.568988774496364647e-01,2.449293598294706414e-16
1.983162006871048044e+00,2.589757797617318613e-01,2.449293598294706414e-16
1.982889720930034461e+00,2.610523982460413728e-01,2.449293598294706414e-16
1.982615260490174558e+00,2.631287306081893096e-01,2.449293598294706414e-16
1.982338625854017211e+00,2.652047745558265279e-01,2.449293598294706414e-16
1.982059817326353057e+00,2.672805277984607875e-01,2.449293598294706414e-16
1.981778835214227374e+00,2.693559880473062607e-01,2.449293598294706414e-16
1.981495679826950518e+00,2.714311530151453655e-01,2.449293598294706414e-16
1.981210351476109244e+00,2.735060204162085284e-01,2.449293598294706414e-16
1.980922850475575370e+00,2.755805879660629398e-01,2.449293598294706414e-16
1.980633177141514434e+00,2.776548533815137998e-01,2.449293598294706414e-16
1.980341331792393467e+00,2.797288143805166105e-01,2.449293598294706414e-16
1.980047314748987430e+00,2.818024686820968516e-01,2.449293598294706414e-16
1.979751126334386546e+00,2.838758140062799806e-01,2.449293598294706414e-16
1.979452766874000957e+00,2.859488480740258742e-01,2.449293598294706414e-16
1.979152236695566502e+00,2.880215686071730397e-01,2.449293598294706414e-16
1.978849536129149156e+00,2.900939733283869337e-01,2.449293598294706414e-16
1.978544665507149691e+00,2.921660599611138331e-01,2.449293598294706414e-16
1.978237625164306568e+00,2.942378262295398672e-01,2.449293598294706414e-16
1.977928415437699705e+00,2.963092698585554352e-01,2.449293598294706414e-16
1.977617036666754480e+00,2.983803885737205119e-01,2.449293598294706414e-16
1.977303489193243280e+00,3.004511801012365591e-01,2.449293598294706414e-16
1.976987773361288170e+00,3.025216421679212675e-01,2.449293598294706414e-16
1.976669889517363776e+00,3.045917725011837995e-01,2.449293598294706414e-16
1.976349838010298621e+00,3.066615688290048602e-01,2.449293598294706414e-16
1.976027619191277118e+00,3.087310288799186009e-01,2.449293598294706414e-16
1.975703233413841131e+00,3.108001503829961321e-01,2.449293598294706414e-16
1.975376681033891524e+00,3.128689310678311464e-01,2.449293598294706414e-16
1.975047962409688829e+00,3.149373686645274284e-01,2.449293598294706414e-16
1.974717077901855022e+00,3.170054609036876969e-01,2.449293598294706414e-16
1.974384027873373748e+00,3.190732055164031133e-01,2.449293598294706414e-16
1.974048812689592092e+00,3.211406002342463428e-01,2.449293598294706414e-16
1.973711432718219916e+00,3.232076427892622283e-01,2.449293598294706414e-16
1.973371888329332080e+00,3.252743309139630723e-01,2.449293598294706414e-16
1.973030179895367331e+00,3.273406623413211980e-01,2.449293598294706414e-16
1.972686307791129634e+00,3.294066348047657855e-01,2.449293598294706414e-16
1.972340272393788840e+00,3.314722460381782643e-01,2.449293598294706414e-16
1.971992074082880020e+00,3.335374937758887604e-01,2.449293598294706414e-16
1.971641713240304128e+00,3.356023757526734319e-01,2.449293598294706414e-16
1.971289190250328005e+00,3.376668897037524708e-01,2.449293598294706414e-16
1.970934505499585043e+00,3.397310333647877711e-01,2.449293598294706414e-16
1.970577659377074076e+00,3.417948044718822631e-01,2.449293598294706414e-16
1.970218652274160709e+00,3.438582007615781921e-01,2.449293598294706414e-16
1.969857484584576213e+00,3.459212199708569524e-01,2.449293598294706414e-16
1.969494156704417964e+00,3.479838598371383096e-01,2.449293598294706414e-16
1.969128669032149448e+00,3.500461180982815113e-01,2.449293598294706414e-16
1.968761021968598923e+00,3.521079924925839544e-01,2.449293598294706414e-16
1.968391215916961423e+00,3.541694807587826843e-01,2.449293598294706414e-16
1.968019251282796755e+00,3.562305806360541727e-01,2.449293598294706414e-16
1.967645128474029281e+00,3.582912898640164823e-01,2.449293598294706414e-16
1.967268847900949025e+00,3.603516061827289896e-01,2.449293598294706414e-16
1.966890409976210119e+00,3.624115273326942721e-01,2.449293598294706414e-16
1.966509815114831028e+00,3.644710510548586080e-01,2.449293598294706414e-16
1.966127063734194103e+00,3.665301750906144185e-01,2.449293598294706414e-16
1.965742156254045359e+00,3.685888971818007676e-01,2.449293598294706414e-16
1.965355093096494477e+00,3.706472150707052493e-01,2.449293598294706414e-16
1.964965874686013247e+00,3.727051265000664304e-01,2.449293598294706414e-16
1.964574501449436905e+00,3.747626292130745163e-01,2.449293598294706414e-16
1.964180973815962128e+00,3.768197209533742376e-01,2.449293598294706414e-16
1.963785292217147704e+00,3.788763994650653499e-01,2.449293598294706414e-16
1.963387457086913868e+00,3.809326624927060201e-01,2.449293598294706414e-16
1.962987468861541851e+00,3.829885077813139915e-01,2.449293598294706414e-16
1.962585327979673000e+00,3.850439330763687495e-01,2.449293598294706414e-16
1.962181034882309438e+00,3.870989361238145188e-01,2.449293598294706414e-16
1.961774590012812514e+00,3.891535146700604852e-01,2.449293598294706414e-16
1.961365993816903242e+00,3.912076664619848487e-01,2.449293598294706414e-16
1.960955246742660751e+00,3.932613892469363770e-01,2.449293598294706414e-16
1.960542349240523397e+00,3.953146807727356271e-01,2.449293598294706414e-16
1.960127301763286534e+00,3.973675387876792198e-01,2.449293598294706414e-16
1.959710104766103633e+00,3.994199610405404499e-01,2.449293598294706414e-16
1.959290758706484947e+00,4.014719452805716737e-01,2.449293598294706414e-16
1.958869264044297065e+00,4.035234892575080279e-01,2.449293598294706414e-16
1.958445621241762469e+00,4.055745907215675961e-01,2.449293598294706414e-16
1.958019830763459312e+00,4.076252474234562384e-01,2.449293598294706414e-16
1.957591893076320977e+00,4.096754571143672585e-01,2.449293598294706414e-16
1.957161808649634960e+00,4.117252175459860664e-01,2.449293598294706414e-16
1.956729577955043098e+00,4.137745264704911774e-01,2.449293598294706414e-16
1.956295201466540234e+00,4.158233816405570993e-01,2.449293598294706414e-16
1.955858679660475108e+00,4.178717808093568298e-01,2.449293598294706414e-16
1.955420013015547909e+00,4.199197217305637442e-01,2.449293598294706414e-16
1.954979202012811612e+00,4.219672021583548704e-01,2.449293598294706414e-16
1.954536247135670424e+00,4.240142198474118884e-01,2.449293598294706414e-16
1.954091148869879335e+00,4.260607725529246825e-01,2.449293598294706414e-16
1.953643907703543903e+00,4.281068580305937843e-01,2.449293598294706414e-16
1.953194524127119358e+00,4.301524740366324817e-01,2.449293598294706414e-16
1.952742998633410609e+00,4.321976183277684846e-01,2.449293598294706414e-16
1.952289331717571352e+00,4.342422886612482547e-01,2.449293598294706414e-16
1.951833523877103183e+00,4.362864827948373381e-01,2.449293598294706414e-16
1.951375575611855817e+00,4.383301984868241408e-01,2.449293598294706414e-16
1.950915487424025985e+00,4.403734334960215935e-01,2.449293598294706414e-16
1.950453259818157203e+00,4.424161855817706490e-01,2.449293598294706414e-16
1.949988893301139337e+00,4.444584525039410594e-01,2.449293598294706414e-16
1.949522388382206817e+00,4.465002320229358723e-01,2.449293598294706414e-16
1.949053745572940421e+00,4.485415218996917086e-01,2.449293598294706414e-16
1.948582965387264165e+00,4.505823198956830367e-01,2.449293598294706414e-16
1.948110048341446854e+00,4.526226237729238377e-01,2.449293598294706414e-16
1.947634994954099863e+00,4.546624312939694379e-01,2.449293598294706414e-16
1.947157805746177806e+00,4.567017402219202826e-01,2.449293598294706414e-16
1.946678481240977199e+00,4.587405483204228807e-01,2.449293598294706414e-16
1.946197021964136464e+00,4.607788533536736342e-01,2.449293598294706414e-16
1.945713428443634818e+00,4.628166530864207817e-01,2.449293598294706414e-16
1.945227701209791826e+00,4.648539452839661745e-01,2.449293598294706414e-16
1.944739840795267183e+00,4.668907277121691068e-01,2.449293598294706414e-16
1.944249847735059600e+00,4.689269981374470375e-01,2.449293598294706414e-16
1.943757722566506807e+00,4.709627543267794203e-01,2.449293598294706414e-16
1.943263465829284442e+00,4.729979940477099243e-01,2.449293598294706414e-16
1.942767078065405606e+00,4.750327150683482103e-01,2.449293598294706414e-16
1.942268559819220197e+00,4.770669151573727618e-01,2.449293598294706414e-16
1.941767911637415134e+00,4.791005920840333276e-01,2.449293598294706414e-16
1.941265134069012355e+00,4.811337436181539196e-01,2.449293598294706414e-16
1.940760227665369042e+00,4.831663675301339778e-01,2.449293598294706414e-16
1.940253192980177399e+00,4.851984615909523124e-01,2.449293598294706414e-16
1.939744030569462652e+00,4.872300235721685469e-01,2.449293598294706414e-16
1.939232740991583936e+00,4.892610512459254490e-01,2.449293598294706414e-16
1.938719324807233413e+00,4.912915423849522067e-01,2.449293598294706414e-16
1.938203782579434487e+00,4.933214947625662594e-01,2.449293598294706414e-16
1.937686114873542476e+00,4.953509061526754631e-01,2.449293598294706414e-16
1.937166322257243722e+00,4.973797743297815321e-01,2.449293598294706414e-16
1.936644405300554483e+00,4.994080970689816490e-01,2.449293598294706414e-16
1.936120364575820707e+00,5.014358721459712953e-01,2.449293598294706414e-16
1.935594200657717368e+00,5.034630973370459728e-01,2.449293598294706414e-16
1.935065914123247799e+00,5.054897704191051444e-01,2.449293598294706414e-16
1.934535505551742585e+00,5.075158891696528451e-01,2.449293598294706414e-16
1.934002975524860224e+00,5.095414513668015122e-01,2.449293598294706414e-16
1.933468324626585133e+00,5.115664547892737613e-01,2.449293598294706414e-16
1.932931553443227424e+00,5.135908972164050512e-01,2.449293598294706414e-16
1.932392662563422459e+00,5.156147764281461265e-01,2.449293598294706414e-16
1.931851652578130185e+00,5.176380902050652377e-01,2.449293598294706414e-16
1.931308524080634692e+00,5.196608363283503618e-01,2.449293598294706414e-16
1.930763277666542654e+00,5.216830125798126438e-01,2.449293598294706414e-16
1.930215913933784000e+00,5.237046167418875076e-01,2.449293598294706414e-16
1.929666433482609689e+00,5.257256465976386517e-01,2.449293598294706414e-16
1.929114836915592601e+00,5.277460999307586054e-01,2.449293598294706414e-16
1.928561124837626206e+00,5.297659745255728359e-01,2.449293598294706414e-16
