ref_pos_lat (deg),ref_pos_lon (deg),ref_pos_alt (m)
3.200000000000000000e+01,1.199999999999999858e+02,0.000000000000000000e+00
3.200000018036410410e+01,1.199999999999999858e+02,-2.449293598294706384e-18
3.200000036072820819e+01,1.200000000000221547e+02,-4.898587196589412767e-18
3.200000054109230518e+01,1.200000000000864304e+02,-7.347880794884118380e-18
3.200000072145637375e+01,1.200000000002107754e+02,-9.797174393178825534e-18
3.200000090182039969e+01,1.200000000004113474e+02,-1.224646799147353269e-17
3.200000108218432615e+01,1.200000000007026699e+02,-1.469576158976823984e-17
3.200000126254811761e+01,1.200000000010978738e+02,-1.714505518806294700e-17
3.200000144291169590e+01,1.200000000016086972e+02,-1.959434878635765415e-17
3.200000162327498288e+01,1.200000000022457414e+02,-2.204364238465236130e-17
3.200000180363788616e+01,1.200000000030185703e+02,-2.449293598294706846e-17
3.200000198400029916e+01,1.200000000039357388e+02,-2.694222958124177561e-17
3.200000216436210110e+01,1.200000000050050204e+02,-2.939152317953647968e-17
3.200000234472317118e+01,1.200000000062333498e+02,-3.184081677783118684e-17
3.200000252508336018e+01,1.200000000076269657e+02,-3.429011037612589399e-17
3.200000270544253311e+01,1.200000000091915382e+02,-3.673940397442060115e-17
3.200000288580054075e+01,1.200000000109320979e+02,-3.918869757271530830e-17
3.200000306615721968e+01,1.200000000128532207e+02,-4.163799117101001545e-17
3.200000324651239225e+01,1.200000000149590278e+02,-4.408728476930472261e-17
3.200000342686590216e+01,1.200000000172531998e+02,-4.653657836759942976e-17
3.200000360721756465e+01,1.200000000197390762e+02,-4.898587196589413692e-17
3.200000378756720210e+01,1.200000000224196128e+02,-5.143516556418884407e-17
3.200000396791462975e+01,1.200000000252975383e+02,-5.388445916248355122e-17
3.200000414825966288e+01,1.200000000283752684e+02,-5.633375276077825838e-17
3.200000432860211674e+01,1.200000000316549631e+02,-5.878304635907295937e-17
3.200000450894178528e+01,1.200000000351386120e+02,-6.123233995736766036e-17
3.200000468927848374e+01,1.200000000388279489e+02,-6.368163355566236135e-17
3.200000486961202029e+01,1.200000000427245794e+02,-6.613092715395706234e-17
3.200000504994218886e+01,1.200000000468299390e+02,-6.858022075225176333e-17
3.200000523026880472e+01,1.200000000511452924e+02,-7.102951435054646432e-17
3.200000541059166181e+01,1.200000000556718049e+02,-7.347880794884116531e-17
3.200000559091054697e+01,1.200000000604105281e+02,-7.592810154713586630e-17
3.200000577122528256e+01,1.200000000653623715e+02,-7.837739514543056730e-17
3.200000595153566252e+01,1.200000000705281735e+02,-8.082668874372526829e-17
3.200000613184148079e+01,1.200000000759087442e+02,-8.327598234201996928e-17
3.200000631214253133e+01,1.200000000815047088e+02,-8.572527594031467027e-17
3.200000649243862227e+01,1.200000000873166783e+02,-8.817456953860937126e-17
3.200000667272954757e+01,1.200000000933452213e+02,-9.062386313690407225e-17
3.200000685301510828e+01,1.200000000995908493e+02,-9.307315673519877324e-17
3.200000703329509832e+01,1.200000001060539319e+02,-9.552245033349347423e-17
3.200000721356932587e+01,1.200000001127349520e+02,-9.797174393178817522e-17
3.200000739383757775e+01,1.200000001196342083e+02,-1.004210375300828762e-16
3.200000757409966212e+01,1.200000001267520418e+02,-1.028703311283775772e-16
3.200000775435538003e+01,1.200000001340887650e+02,-1.053196247266722782e-16
3.200000793460451831e+01,1.200000001416445912e+02,-1.077689183249669792e-16
3.200000811484688512e+01,1.200000001494197477e+02,-1.102182119232616802e-16
3.200000829508227440e+01,1.200000001574144903e+02,-1.126675055215563935e-16
3.200000847531048720e+01,1.200000001656289754e+02,-1.151167991198510945e-16
3.200000865553132456e+01,1.200000001740633451e+02,-1.175660927181457955e-16
3.200000883574458754e+01,1.200000001827177982e+02,-1.200153863164404965e-16
3.200000901595007008e+01,1.200000001915924344e+02,-1.224646799147351975e-16
3.200000919614758743e+01,1.200000002006873672e+02,-1.249139735130298984e-16
3.200000937633691933e+01,1.200000002100027103e+02,-1.273632671113245994e-16
3.200000955651787393e+01,1.200000002195385349e+02,-1.298125607096193004e-16
3.200000973669025939e+01,1.200000002292949830e+02,-1.322618543079140014e-16
3.200000991685385543e+01,1.200000002392720546e+02,-1.347111479062087024e-16
3.200001009700849153e+01,1.200000002494698492e+02,-1.371604415045034034e-16
3.200001027715394741e+01,1.200000002598884379e+02,-1.396097351027981044e-16
3.200001045729003124e+01,1.200000002705278490e+02,-1.420590287010928054e-16
3.200001063741655116e+01,1.200000002813881110e+02,-1.445083222993875064e-16
3.200001081753329402e+01,1.200000002924692950e+02,-1.469576158976822074e-16
3.200001099764006796e+01,1.200000003037714151e+02,-1.494069094959769084e-16
3.200001117773667403e+01,1.200000003152944856e+02,-1.518562030942716093e-16
3.200001135782291328e+01,1.200000003270385349e+02,-1.543054966925663103e-16
3.200001153789858677e+01,1.200000003390036056e+02,-1.567547902908610113e-16
3.200001171796349553e+01,1.200000003511897120e+02,-1.592040838891557123e-16
3.200001189801744772e+01,1.200000003635968540e+02,-1.616533774874504133e-16
3.200001207806023729e+01,1.200000003762250316e+02,-1.641026710857451143e-16
3.200001225809166527e+01,1.200000003890742732e+02,-1.665519646840398153e-16
3.200001243811154694e+01,1.200000004021445363e+02,-1.690012582823345163e-16
3.200001261811966913e+01,1.200000004154359061e+02,-1.714505518806292173e-16
3.200001279811583998e+01,1.200000004289483257e+02,-1.738998454789239183e-16
3.200001297809985346e+01,1.200000004426817810e+02,-1.763491390772186193e-16
3.200001315807152480e+01,1.200000004566363287e+02,-1.787984326755133202e-16
3.200001333803065506e+01,1.200000004708118979e+02,-1.812477262738080212e-16
3.200001351797703819e+01,1.200000004852085453e+02,-1.836970198721027222e-16
3.200001369791047523e+01,1.200000004998262142e+02,-1.861463134703974232e-16
3.200001387783078144e+01,1.200000005146649329e+02,-1.885956070686921242e-16
3.200001405773774366e+01,1.200000005297246588e+02,-1.910449006669868252e-16
3.200001423763117714e+01,1.200000005450054203e+02,-1.934941942652815262e-16
3.200001441751088294e+01,1.200000005605071891e+02,-1.959434878635762272e-16
3.200001459737665499e+01,1.200000005762299367e+02,-1.983927814618709282e-16
3.200001477722829435e+01,1.200000005921736488e+02,-2.008420750601656292e-16
3.200001495706562338e+01,1.200000006083383539e+02,-2.032913686584603302e-16
3.200001513688842181e+01,1.200000006247240094e+02,-2.057406622567550311e-16
3.200001531669650490e+01,1.200000006413306011e+02,-2.081899558550497321e-16
3.200001549648967369e+01,1.200000006581581289e+02,-2.106392494533444331e-16
3.200001567626772214e+01,1.200000006752065644e+02,-2.130885430516391341e-16
3.200001585603046550e+01,1.200000006924758793e+02,-2.155378366499338351e-16
3.200001603577769771e+01,1.200000007099660593e+02,-2.179871302482285361e-16
3.200001621550922692e+01,1.200000007276771186e+02,-2.204364238465232371e-16
3.200001639522485419e+01,1.200000007456090003e+02,-2.228857174448179381e-16
3.200001657492438056e+01,1.200000007637617330e+02,-2.253350110431126391e-16
3.200001675460761419e+01,1.200000007821352597e+02,-2.277843046414073401e-16
3.200001693427434901e+01,1.200000008007295662e+02,-2.302335982397020411e-16
3.200001711392439319e+01,1.200000008195446384e+02,-2.326828918379967420e-16
3.200001729355755486e+01,1.200000008385804620e+02,-2.351321854362914430e-16
3.200001747317362089e+01,1.200000008578370085e+02,-2.375814790345861440e-16
3.200001765277241361e+01,1.200000008773142781e+02,-2.400307726328808450e-16
3.200001783235372699e+01,1.200000008970122138e+02,-2.424800662311755460e-16
3.200001801191736917e+01,1.200000009169308299e+02,-2.449293598294702470e-16
3.200001819146312698e+01,1.200000009370700695e+02,-2.473786534277649480e-16
3.200001837099082280e+01,1.200000009574299469e+02,-2.498279470260596490e-16
3.200001855050025057e+01,1.200000009780104335e+02,-2.522772406243543500e-16
3.200001872999121133e+01,1.200000009988115153e+02,-2.547265342226490510e-16
3.200001890946351324e+01,1.200000010198331211e+02,-2.571758278209437520e-16
3.200001908891695734e+01,1.200000010410752793e+02,-2.596251214192384529e-16
3.200001926835135180e+01,1.200000010625379474e+02,-2.620744150175331539e-16
3.200001944776649054e+01,1.200000010842210827e+02,-2.645237086158278549e-16
3.200001962716218173e+01,1.200000011061246994e+02,-2.669730022141225559e-16
3.200001980653823352e+01,1.200000011282487691e+02,-2.694222958124172569e-16
3.200001998589443986e+01,1.200000011505932349e+02,-2.718715894107119579e-16
3.200002016523060888e+01,1.200000011731580969e+02,-2.743208830090066589e-16
3.200002034454654165e+01,1.200000011959433266e+02,-2.767701766073013599e-16
3.200002052384204632e+01,1.200000012189488956e+02,-2.792194702055960609e-16
3.200002070311691682e+01,1.200000012421748039e+02,-2.816687638038907619e-16
3.200002088237096842e+01,1.200000012656209947e+02,-2.841180574021854629e-16
3.200002106160400217e+01,1.200000012892874537e+02,-2.865673510004801639e-16
3.200002124081581201e+01,1.200000013131741525e+02,-2.890166445987748648e-16
3.200002142000620609e+01,1.200000013372810486e+02,-2.914659381970695658e-16
3.200002159917499966e+01,1.200000013616081418e+02,-2.939152317953642668e-16
3.200002177832197958e+01,1.200000013861554180e+02,-2.963645253936589678e-16
3.200002195744695399e+01,1.200000014109228204e+02,-2.988138189919536688e-16
3.200002213654973104e+01,1.200000014359103346e+02,-3.012631125902483698e-16
3.200002231563011179e+01,1.200000014611179040e+02,-3.037124061885430708e-16
3.200002249468790438e+01,1.200000014865455569e+02,-3.061616997868377718e-16
3.200002267372289566e+01,1.200000015121932080e+02,-3.086109933851324728e-16
3.200002285273490799e+01,1.200000015380609000e+02,-3.110602869834271738e-16
3.200002303172374241e+01,1.200000015641485192e+02,-3.135095805817218748e-16
3.200002321068919287e+01,1.200000015904561081e+02,-3.159588741800165757e-16
3.200002338963106752e+01,1.200000016169835817e+02,-3.184081677783112767e-16
3.200002356854917451e+01,1.200000016437309540e+02,-3.208574613766059777e-16
3.200002374744331490e+01,1.200000016706981683e+02,-3.233067549749006787e-16
3.200002392631329684e+01,1.200000016978852102e+02,-3.257560485731953797e-16
3.200002410515891427e+01,1.200000017252920514e+02,-3.282053421714900807e-16
3.200002428397997534e+01,1.200000017529186636e+02,-3.306546357697847817e-16
3.200002446277628820e+01,1.200000017807650039e+02,-3.331039293680794827e-16
3.200002464154765391e+01,1.200000018088310583e+02,-3.355532229663741837e-16
3.200002482029387352e+01,1.200000018371167698e+02,-3.380025165646688847e-16
3.200002499901475517e+01,1.200000018656221243e+02,-3.404518101629635857e-16
3.200002517771009991e+01,1.200000018943470934e+02,-3.429011037612582866e-16
3.200002535637970880e+01,1.200000019232916344e+02,-3.453503973595529876e-16
3.200002553502340419e+01,1.200000019524557189e+02,-3.477996909578476886e-16
3.200002571364095871e+01,1.200000019818393326e+02,-3.502489845561423896e-16
3.200002589223220184e+01,1.200000020114424188e+02,-3.526982781544370906e-16
3.200002607079693462e+01,1.200000020412649491e+02,-3.551475717527317916e-16
3.200002624933495810e+01,1.200000020713069091e+02,-3.575968653510264926e-16
3.200002642784606621e+01,1.200000021015682705e+02,-3.600461589493211936e-16
3.200002660633007423e+01,1.200000021320489481e+02,-3.624954525476158946e-16
3.200002678478679030e+01,1.200000021627489559e+02,-3.649447461459105956e-16
3.200002696321600126e+01,1.200000021936682515e+02,-3.673940397442052966e-16
3.200002714161752948e+01,1.200000022248067921e+02,-3.698433333424999975e-16
3.200002731999116889e+01,1.200000022561645636e+02,-3.722926269407946985e-16
3.200002749833673477e+01,1.200000022877415233e+02,-3.747419205390893995e-16
3.200002767665402104e+01,1.200000023195376002e+02,-3.771912141373841005e-16
3.200002785494282875e+01,1.200000023515528085e+02,-3.796405077356788015e-16
3.200002803320298028e+01,1.200000023837871055e+02,-3.820898013339735025e-16
3.200002821143425535e+01,1.200000024162404060e+02,-3.845390949322682035e-16
3.200002838963649054e+01,1.200000024489127526e+02,-3.869883885305629045e-16
3.200002856780945848e+01,1.200000024818040600e+02,-3.894376821288576055e-16
3.200002874595298152e+01,1.200000025149142999e+02,-3.918869757271523065e-16
3.200002892406685362e+01,1.200000025482434296e+02,-3.943362693254470075e-16
3.200002910215089003e+01,1.200000025817914064e+02,-3.967855629237417084e-16
3.200002928020489890e+01,1.200000026155582447e+02,-3.992348565220364094e-16
3.200002945822866707e+01,1.200000026495438448e+02,-4.016841501203311104e-16
3.200002963622200980e+01,1.200000026837482210e+02,-4.041334437186258114e-16
3.200002981418473524e+01,1.200000027181712881e+02,-4.065827373169205124e-16
3.200002999211664445e+01,1.200000027528130460e+02,-4.090320309152152134e-16
3.200003017001753847e+01,1.200000027876734237e+02,-4.114813245135099144e-16
3.200003034788723966e+01,1.200000028227523927e+02,-4.139306181118046154e-16
3.200003052572552775e+01,1.200000028580499389e+02,-4.163799117100993164e-16
3.200003070353221801e+01,1.200000028935660197e+02,-4.188292053083940174e-16
3.200003088130711859e+01,1.200000029293005781e+02,-4.212784989066887184e-16
3.200003105905003764e+01,1.200000029652535574e+02,-4.237277925049834193e-16
3.200003123676077621e+01,1.200000030014249717e+02,-4.261770861032781203e-16
3.200003141443914245e+01,1.200000030378147358e+02,-4.286263797015728213e-16
3.200003159208492320e+01,1.200000030744228212e+02,-4.310756732998675223e-16
3.200003176969794794e+01,1.200000031112491854e+02,-4.335249668981622233e-16
3.200003194727801059e+01,1.200000031482938283e+02,-4.359742604964569243e-16
3.200003212482491932e+01,1.200000031855566363e+02,-4.384235540947516253e-16
3.200003230233847518e+01,1.200000032230376235e+02,-4.408728476930463263e-16
3.200003247981849341e+01,1.200000032607367331e+02,-4.433221412913410273e-16
3.200003265726476798e+01,1.200000032986539082e+02,-4.457714348896357776e-16
3.200003283467710702e+01,1.200000033367891348e+02,-4.482207284879305279e-16
3.200003301205531869e+01,1.200000033751423558e+02,-4.506700220862252782e-16
3.200003318939920405e+01,1.200000034137135287e+02,-4.531193156845200284e-16
3.200003336670857834e+01,1.200000034525026251e+02,-4.555686092828147787e-16
3.200003354398324262e+01,1.200000034915095881e+02,-4.580179028811095290e-16
3.200003372122299083e+01,1.200000035307343751e+02,-4.604671964794042793e-16
3.200003389842764534e+01,1.200000035701769434e+02,-4.629164900776990296e-16
3.200003407559700008e+01,1.200000036098372647e+02,-4.653657836759937799e-16
3.200003425273087743e+01,1.200000036497152962e+02,-4.678150772742885302e-16
3.200003442982905710e+01,1.200000036898109386e+02,-4.702643708725832805e-16
3.200003460689136858e+01,1.200000037301242202e+02,-4.727136644708780308e-16
3.200003478391760581e+01,1.200000037706550700e+02,-4.751629580691727811e-16
3.200003496090757693e+01,1.200000038114034169e+02,-4.776122516674675314e-16
3.200003513786109011e+01,1.200000038523692751e+02,-4.800615452657622817e-16
3.200003531477794638e+01,1.200000038935525453e+02,-4.825108388640570320e-16
3.200003549165795391e+01,1.200000039349531846e+02,-4.849601324623517823e-16
3.200003566850092085e+01,1.200000039765711790e+02,-4.874094260606465326e-16
3.200003584530665535e+01,1.200000040184064858e+02,-4.898587196589412829e-16
3.200003602207495135e+01,1.200000040604590197e+02,-4.923080132572360332e-16
3.200003619880563122e+01,1.200000041027287665e+02,-4.947573068555307835e-16
3.200003637549848889e+01,1.200000041452156836e+02,-4.972066004538255338e-16
3.200003655215333964e+01,1.200000041879196999e+02,-4.996558940521202840e-16
3.200003672876998451e+01,1.200000042308407728e+02,-5.021051876504150343e-16
3.200003690534822454e+01,1.200000042739788597e+02,-5.045544812487097846e-16
3.200003708188787499e+01,1.200000043173339179e+02,-5.070037748470045349e-16
3.200003725838874402e+01,1.200000043609059190e+02,-5.094530684452992852e-16
3.200003743485063268e+01,1.200000044046947778e+02,-5.119023620435940355e-16
3.200003761127334911e+01,1.200000044487004516e+02,-5.143516556418887858e-16
3.200003778765669438e+01,1.200000044929229261e+02,-5.168009492401835361e-16
3.200003796400048373e+01,1.200000045373621305e+02,-5.192502428384782864e-16
3.200003814030451821e+01,1.200000045820179793e+02,-5.216995364367730367e-16
3.200003831656860598e+01,1.200000046268904867e+02,-5.241488300350677870e-16
3.200003849279255519e+01,1.200000046719795819e+02,-5.265981236333625373e-16
3.200003866897617399e+01,1.200000047172851936e+02,-5.290474172316572876e-16
3.200003884511925634e+01,1.200000047628072934e+02,-5.314967108299520379e-16
3.200003902122163169e+01,1.200000048085458388e+02,-5.339460044282467882e-16
3.200003919728308688e+01,1.200000048545007587e+02,-5.363952980265415385e-16
3.200003937330343717e+01,1.200000049006719962e+02,-5.388445916248362888e-16
3.200003954928249073e+01,1.200000049470595513e+02,-5.412938852231310391e-16
3.200003972522004858e+01,1.200000049936632962e+02,-5.437431788214257894e-16
3.200003990111592600e+01,1.200000050404832592e+02,-5.461924724197205396e-16
3.200004007696992403e+01,1.200000050875193409e+02,-5.486417660180152899e-16
3.200004025278185082e+01,1.200000051347714844e+02,-5.510910596163100402e-16
3.200004042855152164e+01,1.200000051822396614e+02,-5.535403532146047905e-16
3.200004060427872332e+01,1.200000052299238149e+02,-5.559896468128995408e-16
3.200004077996328533e+01,1.200000052778238739e+02,-5.584389404111942911e-16
3.200004095560500872e+01,1.200000053259398243e+02,-5.608882340094890414e-16
3.200004113120369453e+01,1.200000053742715806e+02,-5.633375276077837917e-16
3.200004130675914382e+01,1.200000054228190862e+02,-5.657868212060785420e-16
3.200004148227118606e+01,1.200000054715823268e+02,-5.682361148043732923e-16
3.200004165773961518e+01,1.200000055205612171e+02,-5.706854084026680426e-16
3.200004183316423934e+01,1.200000055697557002e+02,-5.731347020009627929e-16
3.200004200854486669e+01,1.200000056191657194e+02,-5.755839955992575432e-16
3.200004218388130539e+01,1.200000056687912462e+02,-5.780332891975522935e-16
3.200004235917337070e+01,1.200000057186322238e+02,-5.804825827958470438e-16
3.200004253442084945e+01,1.200000057686885810e+02,-5.829318763941417941e-16
3.200004270962357822e+01,1.200000058189602754e+02,-5.853811699924365444e-16
3.200004288478132963e+01,1.200000058694472216e+02,-5.878304635907312947e-16
3.200004305989394737e+01,1.200000059201493912e+02,-5.902797571890260450e-16
3.200004323496121827e+01,1.200000059710667415e+02,-5.927290507873207952e-16
3.200004340998295760e+01,1.200000060221991873e+02,-5.951783443856155455e-16
3.200004358495897350e+01,1.200000060735467002e+02,-5.976276379839102958e-16
3.200004375988906702e+01,1.200000061251091950e+02,-6.000769315822050461e-16
3.200004393477305342e+01,1.200000061768866431e+02,-6.025262251804997964e-16
3.200004410961074086e+01,1.200000062288789593e+02,-6.049755187787945467e-16
3.200004428440193038e+01,1.200000062810860868e+02,-6.074248123770892970e-16
3.200004445914644435e+01,1.200000063335080114e+02,-6.098741059753840473e-16
3.200004463384407671e+01,1.200000063861446478e+02,-6.123233995736787976e-16
3.200004480849463562e+01,1.200000064389959249e+02,-6.147726931719735479e-16
3.200004498309794343e+01,1.200000064920618001e+02,-6.172219867702682982e-16
3.200004515765380120e+01,1.200000065453421882e+02,-6.196712803685630485e-16
3.200004533216200997e+01,1.200000065988370892e+02,-6.221205739668577988e-16
3.200004550662239211e+01,1.200000066525464035e+02,-6.245698675651525491e-16
3.200004568103474867e+01,1.200000067064700602e+02,-6.270191611634472994e-16
3.200004585539888780e+01,1.200000067606080449e+02,-6.294684547617420497e-16
3.200004602971462475e+01,1.200000068149602583e+02,-6.319177483600368000e-16
3.200004620398175348e+01,1.200000068695266719e+02,-6.343670419583315503e-16
3.200004637820009634e+01,1.200000069243071721e+02,-6.368163355566263006e-16
3.200004655236946149e+01,1.200000069793017587e+02,-6.392656291549210508e-16
