ref_vel_x (m/s),ref_vel_y (m/s),ref_vel_z (m/s)
2.000000000000000000e+00,-1.224646799147353207e-16,2.449293598294706414e-16
2.000999999999999890e+00,-1.225259122546926698e-16,2.450518245093853395e-16
2.002899999999999903e+00,-1.226422537006116822e-16,2.452845074012233645e-16
2.005609999999999893e+00,-1.228081933418961450e-16,2.456163866837922899e-16
2.009049000000000085e+00,-1.230187713590095573e-16,2.460375427180191146e-16
2.013144099999999881e+00,-1.232695239143689478e-16,2.465390478287378957e-16
2.017829689999999676e+00,-1.235564335541497804e-16,2.471128671082995608e-16
2.023046720999999604e+00,-1.238758845699099083e-16,2.477517691398198167e-16
2.028742048899999428e+00,-1.242246228240513701e-16,2.484492456481027401e-16
2.034867844009999427e+00,-1.245997195927360815e-16,2.491994391854721629e-16
2.041381059608999404e+00,-1.249985390245096683e-16,2.499970780490193366e-16
2.048242953648099274e+00,-1.254187088530632578e-16,2.508374177061265157e-16
2.055418658283289179e+00,-1.258580940387188621e-16,2.517161880774377242e-16
2.062876792454960029e+00,-1.263147730457662722e-16,2.526295460915325445e-16
2.070589113209464038e+00,-1.267870164920663372e-16,2.535740329841326744e-16
2.078530201888517670e+00,-1.272732679336937595e-16,2.545465358673875191e-16
2.086677181699665873e+00,-1.277721265711157813e-16,2.555442531422315625e-16
2.095009463529699190e+00,-1.282823316847529893e-16,2.565646633695059786e-16
2.103508517176729153e+00,-1.288027486269838379e-16,2.576054972539676757e-16
2.112157665459056144e+00,-1.293323562149489556e-16,2.586647124298979111e-16
2.120941898913150325e+00,-1.298702353840749376e-16,2.597404707681498753e-16
2.129847709021835289e+00,-1.304155589762456952e-16,2.608311179524913904e-16
2.138862938119651780e+00,-1.309675825491567359e-16,2.619351650983134718e-16
2.147976644307686644e+00,-1.315256361047340610e-16,2.630512722094681220e-16
2.157178979876917868e+00,-1.320891166447109953e-16,2.641782332894219905e-16
2.166461081889226037e+00,-1.326574814706476295e-16,2.653149629412952590e-16
2.175814973700303412e+00,-1.332302421539479493e-16,2.664604843078958986e-16
2.185233476330273206e+00,-1.338069591088756330e-16,2.676139182177512661e-16
2.194710128697245910e+00,-1.343872367082678925e-16,2.687744734165357850e-16
2.204239115827521189e+00,-1.349707188876782874e-16,2.699414377753565748e-16
2.213815204244768964e+00,-1.355570851891050066e-16,2.711141703782100132e-16
2.223433683820291940e+00,-1.361460472003464276e-16,2.722920944006928552e-16
2.233090315438262863e+00,-1.367373453504210999e-16,2.734746907008421997e-16
2.242781283894436317e+00,-1.373307460254456343e-16,2.746614920508912685e-16
2.252503155504992804e+00,-1.379260389729251185e-16,2.758520779458502369e-16
2.262252839954493666e+00,-1.385230349656139984e-16,2.770460699312279967e-16
2.272027555959044154e+00,-1.391215636989913615e-16,2.782431273979827230e-16
2.281824800363139616e+00,-1.397214718989883595e-16,2.794429437979767190e-16
2.291642320326825466e+00,-1.403226216189430240e-16,2.806452432378860481e-16
2.301478088294143021e+00,-1.409248887068596007e-16,2.818497774137192015e-16
2.311330279464728576e+00,-1.415281614259418565e-16,2.830563228518837129e-16
2.321197251518255733e+00,-1.421323392130732850e-16,2.842646784261465699e-16
2.331077526366430064e+00,-1.427373315614489320e-16,2.854746631228978640e-16
2.340969773729787207e+00,-1.433430570149443880e-16,2.866861140298887760e-16
2.350872796356808347e+00,-1.439494422630476351e-16,2.878988845260952702e-16
2.360785516721127575e+00,-1.445564213262979657e-16,2.891128426525959314e-16
2.370706965049014681e+00,-1.451639348231806073e-16,2.903278696463612147e-16
2.380636268544113143e+00,-1.457719293103323363e-16,2.915438586206646726e-16
2.390572641689701960e+00,-1.463803566887263080e-16,2.927607133774526160e-16
2.400515377520731519e+00,-1.469891736692381946e-16,2.939783473384763891e-16
2.410463839768658190e+00,-1.475983412916562933e-16,2.951966825833125865e-16
2.420417455791792349e+00,-1.482078244917899385e-16,2.964156489835798771e-16
2.430375710212612894e+00,-1.488175917118675930e-16,2.976351834237351860e-16
2.440338139191351452e+00,-1.494276145498948310e-16,2.988552290997896620e-16
2.450304325272216310e+00,-1.500378674440767460e-16,3.000757348881534921e-16
2.460273892744994750e+00,-1.506483273887978260e-16,3.012966547775956520e-16
2.470246503470495014e+00,-1.512589736790041495e-16,3.025179473580082989e-16
2.480221853123445452e+00,-1.518697876801472143e-16,3.037395753602944285e-16
2.490199667811100692e+00,-1.524807526211333413e-16,3.049615052422666827e-16
2.500179701029990653e+00,-1.530918534079782368e-16,3.061837068159564736e-16
2.510161730926991464e+00,-1.537030764560959770e-16,3.074061529121919539e-16
2.520145557834292394e+00,-1.543144095393593488e-16,3.086288190787186977e-16
2.530131002050862943e+00,-1.549258416542537375e-16,3.098516833085074750e-16
2.540117901845776682e+00,-1.555373628976160610e-16,3.110747257952321219e-16
2.550106111661198938e+00,-1.561489643565994962e-16,3.122979287131989924e-16
2.560095500495079168e+00,-1.567606380096420010e-16,3.135212760192840021e-16
2.570085950445571310e+00,-1.573723766373376044e-16,3.147447532746752089e-16
2.580077355401014128e+00,-1.579841737422210113e-16,3.159683474844420226e-16
2.590069619860912553e+00,-1.585960234765734192e-16,3.171920469531468383e-16
2.600062657874821159e+00,-1.592079205774479648e-16,3.184158411548959296e-16
2.610056392087339194e+00,-1.598198603081924518e-16,3.196397206163849036e-16
2.620050752878605227e+00,-1.604318384058198292e-16,3.208636768116396585e-16
2.630045677590744813e+00,-1.610438510336418772e-16,3.220877020672837543e-16
2.640041109831670507e+00,-1.616558947386390644e-16,3.233117894772781288e-16
2.650036998848503522e+00,-1.622679664130939041e-16,3.245359328261878082e-16
2.660033298963653259e+00,-1.628800632600606138e-16,3.257601265201212276e-16
2.670029969067287734e+00,-1.634921827622880139e-16,3.269843655245760279e-16
2.680026972160558962e+00,-1.641043226542500699e-16,3.282086453085001398e-16
2.690024274944502913e+00,-1.647164808969732668e-16,3.294329617939465337e-16
2.700021847450052803e+00,-1.653286556553815104e-16,3.306573113107630208e-16
2.710019662705047683e+00,-1.659408452779063156e-16,3.318816905558126312e-16
2.720017696434542831e+00,-1.665530482781360041e-16,3.331060965562720082e-16
2.730015926791088621e+00,-1.671652633183000876e-16,3.343305266366001752e-16
2.740014334111979810e+00,-1.677774891944051315e-16,3.355549783888102629e-16
2.750012900700781859e+00,-1.683897248228570299e-16,3.367794496457140598e-16
2.760011610630703771e+00,-1.690019692284211146e-16,3.380039384568422292e-16
2.770010449567633426e+00,-1.696142215333861645e-16,3.392284430667723290e-16
2.780009404610870316e+00,-1.702264809478120634e-16,3.404529618956241268e-16
2.790008464149783318e+00,-1.708387467607527609e-16,3.416774935215055218e-16
2.800007617734804999e+00,-1.714510183323567426e-16,3.429020366647134852e-16
2.810006855961324490e+00,-1.720632950867576925e-16,3.441265901735153849e-16
2.820006170365191966e+00,-1.726755765056758939e-16,3.453511530113517877e-16
2.830005553328672985e+00,-1.732878621226596686e-16,3.465757242453193371e-16
2.840004997995805525e+00,-1.739001515179024370e-16,3.478003030358048740e-16
2.850004498196224922e+00,-1.745124443135782826e-16,3.490248886271565651e-16
2.860004048376602270e+00,-1.751247401696439049e-16,3.502494803392878098e-16
2.870003643538942217e+00,-1.757370387800603461e-16,3.514740775601206923e-16
2.880003279185047838e+00,-1.763493398693924824e-16,3.526986797387849648e-16
2.890002951266542830e+00,-1.769616431897487861e-16,3.539232863794975723e-16
2.900002656139888391e+00,-1.775739485180268455e-16,3.551478970360536910e-16
2.910002390525899596e+00,-1.781862556534344430e-16,3.563725113068688861e-16
2.920002151473309659e+00,-1.787985644152586816e-16,3.575971288305173632e-16
2.930001936325978829e+00,-1.794108746408578404e-16,3.588217492817156809e-16
2.940001742693381104e+00,-1.800231861838544645e-16,3.600463723677089290e-16
2.950001568424042819e+00,-1.806354989125087825e-16,3.612709978250175651e-16
2.960001411581638653e+00,-1.812478127082550499e-16,3.624956254165100998e-16
2.970001270423474615e+00,-1.818601274643840272e-16,3.637202549287680544e-16
2.980001143381127093e+00,-1.824724430848574953e-16,3.649448861697149905e-16
2.990001029043014569e+00,-1.830847594832410001e-16,3.661695189664820001e-16
3.000000926138713275e+00,-1.836970765817435133e-16,3.673941531634870266e-16
3.010000833524841823e+00,-1.843093943103531365e-16,3.686187886207062731e-16
3.020000750172357584e+00,-1.849217126060591613e-16,3.698434252121183226e-16
3.030000675155121836e+00,-1.855340314121519548e-16,3.710680628243039096e-16
3.040000607639609775e+00,-1.861463506775928328e-16,3.722927013551856656e-16
3.050000546875648588e+00,-1.867586703564469917e-16,3.735173407128939835e-16
3.060000492188083676e+00,-1.873709904073730912e-16,3.747419808147461824e-16
3.070000442969275323e+00,-1.879833107931639643e-16,3.759666215863279286e-16
3.080000398672347650e+00,-1.885956314803331065e-16,3.771912629606662130e-16
3.090000358805113034e+00,-1.892079524387427279e-16,3.784159048774854558e-16
3.100000322924601814e+00,-1.898202736412687337e-16,3.796405472825374674e-16
3.110000290632141784e+00,-1.904325950634995274e-16,3.808651901269990549e-16
3.120000261568927513e+00,-1.910449166834645933e-16,3.820898333669291866e-16
3.130000235412034648e+00,-1.916572384813905164e-16,3.833144769627810328e-16
3.140000211870831226e+00,-1.922695604394812110e-16,3.845391208789624220e-16
3.150000190683748258e+00,-1.928818825417202369e-16,3.857637650834404739e-16
3.160000171615373610e+00,-1.934942047736927143e-16,3.869884095473854285e-16
3.170000154453836316e+00,-1.941065271224253077e-16,3.882130542448506154e-16
3.180000139008452908e+00,-1.947188495762420130e-16,3.894376991524840260e-16
3.190000125107607776e+00,-1.953311721246344140e-16,3.906623442492688281e-16
3.200000112596847135e+00,-1.959434947581449314e-16,3.918869895162898629e-16
3.210000101337162626e+00,-1.965558174682617806e-16,3.931116349365235613e-16
3.220000091203446324e+00,-1.971681402473243087e-16,3.943362804946486175e-16
3.230000082083101631e+00,-1.977804630884379207e-16,3.955609261768758415e-16
3.240000073874791386e+00,-1.983927859853975600e-16,3.967855719707951200e-16
3.250000066487312100e+00,-1.990051089326185844e-16,3.980102178652371688e-16
3.260000059838580988e+00,-1.996174319250749146e-16,3.992348638501498291e-16
3.270000053854722921e+00,-2.002297549582429509e-16,4.004595099164859017e-16
3.280000048469250640e+00,-2.008420780280515548e-16,4.016841560561031095e-16
3.290000043622325787e+00,-2.014544011308366892e-16,4.029088022616733785e-16
3.300000039260093221e+00,-2.020667242633006445e-16,4.041334485266012890e-16
3.310000035334084156e+00,-2.026790474224756026e-16,4.053580948449512051e-16
3.320000031800675711e+00,-2.032913706056904065e-16,4.065827412113808129e-16
3.330000028620608177e+00,-2.039036938105411258e-16,4.078073876210822517e-16
3.340000025758547597e+00,-2.045160170348641371e-16,4.090320340697282742e-16
3.350000023182692743e+00,-2.051283402767121864e-16,4.102566805534243729e-16
3.360000020864423398e+00,-2.057406635343327947e-16,4.114813270686655893e-16
3.370000018777981055e+00,-2.063529868061487330e-16,4.127059736122974660e-16
3.380000016900182924e+00,-2.069653100907404463e-16,4.139306201814808925e-16
3.390000015210164808e+00,-2.075776333868303496e-16,4.151552667736606991e-16
3.400000013689148393e+00,-2.081899566932686288e-16,4.163799133865372576e-16
3.410000012320233420e+00,-2.088022800090204464e-16,4.176045600180408929e-16
3.420000011088210279e+00,-2.094146033331544535e-16,4.188292066663089071e-16
3.430000009979389475e+00,-2.100269266648324361e-16,4.200538533296648721e-16
3.440000008981450641e+00,-2.106392500032999965e-16,4.212785000065999930e-16
3.450000008083305758e+00,-2.112515733478781475e-16,4.225031466957562949e-16
3.460000007274975253e+00,-2.118638966979558669e-16,4.237277933959117337e-16
3.470000006547477867e+00,-2.124762200529831708e-16,4.249524401059663415e-16
3.480000005892730286e+00,-2.130885434124651229e-16,4.261770868249302458e-16
3.490000005303457442e+00,-2.137008667759562387e-16,4.274017335519124774e-16
3.500000004773111684e+00,-2.143131901430556043e-16,4.286263802861112086e-16
3.510000004295800391e+00,-2.149255135134023898e-16,4.298510270268047795e-16
3.520000003866220251e+00,-2.155378368866718802e-16,4.310756737733437605e-16
3.530000003479598192e+00,-2.161501602625717781e-16,4.323003205251435562e-16
3.540000003131638540e+00,-2.167624836408390722e-16,4.335249672816781443e-16
3.550000002818474609e+00,-2.173748070212369809e-16,4.347496140424739619e-16
3.560000002536627406e+00,-2.179871304035525120e-16,4.359742608071050240e-16
3.570000002282964768e+00,-2.185994537875938242e-16,4.371989075751876483e-16
3.580000002054668506e+00,-2.192117771731883788e-16,4.384235543463767576e-16
3.590000001849201539e+00,-2.198241005601808443e-16,4.396482011203616885e-16
3.600000001664281246e+00,-2.204364239484314196e-16,4.408728478968628392e-16
3.610000001497853273e+00,-2.210487473378143062e-16,4.420974946756286124e-16
3.620000001348067986e+00,-2.216610707282162778e-16,4.433221414564325556e-16
3.630000001213261385e+00,-2.222733941195354235e-16,4.445467882390708470e-16
3.640000001091935111e+00,-2.228857175116800135e-16,4.457714350233600270e-16
3.650000000982741799e+00,-2.234980409045675625e-16,4.469960818091351251e-16
3.660000000884467752e+00,-2.241103642981236712e-16,4.482207285962473424e-16
3.670000000796020956e+00,-2.247226876922815328e-16,4.494453753845630657e-16
3.680000000716419084e+00,-2.253350110869809968e-16,4.506700221739619936e-16
3.690000000644777067e+00,-2.259473344821678782e-16,4.518946689643357564e-16
3.700000000580299542e+00,-2.265596578777934648e-16,4.531193157555869297e-16
3.710000000522269747e+00,-2.271719812738138271e-16,4.543439625476276541e-16
3.720000000470042867e+00,-2.277843046701895218e-16,4.555686093403790437e-16
3.730000000423038475e+00,-2.283966280668850011e-16,4.567932561337700022e-16
3.740000000380734768e+00,-2.290089514638683160e-16,4.580179029277366320e-16
3.750000000342661455e+00,-2.296212748611106731e-16,4.592425497222213461e-16
3.760000000308395318e+00,-2.302335982585861878e-16,4.604671965171723757e-16
3.770000000277555774e+00,-2.308459216562714903e-16,4.616918433125429806e-16
3.780000000249800429e+00,-2.314582450541456264e-16,4.629164901082912527e-16
3.790000000224820642e+00,-2.320705684521897127e-16,4.641411369043794253e-16
3.800000000202338857e+00,-2.326828918503867886e-16,4.653657837007735773e-16
3.810000000182105051e+00,-2.332952152487215209e-16,4.665904304974430417e-16
3.820000000163894516e+00,-2.339075386471801042e-16,4.678150772943602085e-16
3.830000000147505190e+00,-2.345198620457502128e-16,4.690397240915004257e-16
3.840000000132754554e+00,-2.351321854444207040e-16,4.702643708888414079e-16
3.850000000119479182e+00,-2.357445088431814704e-16,4.714890176863629408e-16
3.860000000107531193e+00,-2.363568322420235388e-16,4.727136644840470775e-16
3.870000000096778248e+00,-2.369691556409388233e-16,4.739383112818776466e-16
3.880000000087100442e+00,-2.375814790399198791e-16,4.751629580798397583e-16
3.890000000078390308e+00,-2.381938024389601981e-16,4.763876048779203962e-16
3.900000000070551476e+00,-2.388061258380539131e-16,4.776122516761078263e-16
3.910000000063496461e+00,-2.394184492371956008e-16,4.788368984743912015e-16
3.920000000057147105e+00,-2.400307726363804785e-16,4.800615452727609570e-16
3.930000000051432352e+00,-2.406430960356042077e-16,4.812861920712084153e-16
3.940000000046289141e+00,-2.412554194348629918e-16,4.825108388697259837e-16
3.950000000041660186e+00,-2.418677428341532318e-16,4.837354856683064636e-16
3.960000000037494416e+00,-2.424800662334718215e-16,4.849601324669436430e-16
3.970000000033745202e+00,-2.430923896328159012e-16,4.861847792656318025e-16
3.980000000030370799e+00,-2.437047130321829566e-16,4.874094260643659131e-16
3.990000000027333904e+00,-2.443170364315706702e-16,4.886340728631413404e-16
4.000000000024600766e+00,-2.449293598309770206e-16,4.898587196619540413e-16
4.010000000022141187e+00,-2.455416832304000851e-16,4.910833664608001702e-16
4.020000000019927633e+00,-2.461540066298381872e-16,4.923080132596763744e-16
4.030000000017935236e+00,-2.467663300292898971e-16,4.935326600585797943e-16
4.040000000016141790e+00,-2.473786534287537358e-16,4.947573068575074717e-16
4.050000000014527757e+00,-2.479909768282285693e-16,4.959819536564571386e-16
4.060000000013075372e+00,-2.486033002277133128e-16,4.972066004554266256e-16
4.070000000011767760e+00,-2.492156236272069310e-16,4.984312472544138620e-16
4.080000000010591599e+00,-2.498279470267085857e-16,4.996558940534171714e-16
4.090000000009532677e+00,-2.504402704262174388e-16,5.008805408524348775e-16
4.100000000008579448e+00,-2.510525938257327506e-16,5.021051876514655012e-16
4.110000000007722143e+00,-2.516649172252539296e-16,5.033298344505078593e-16
4.120000000006950103e+00,-2.522772406247803349e-16,5.045544812495606697e-16
4.130000000006255334e+00,-2.528895640243114733e-16,5.057791280486229465e-16
4.140000000005629843e+00,-2.535018874238468518e-16,5.070037748476937035e-16
4.150000000005067413e+00,-2.541142108233860760e-16,5.082284216467721520e-16
4.160000000004560938e+00,-2.547265342229287515e-16,5.094530684458575029e-16
4.170000000004105090e+00,-2.553388576224744838e-16,5.106777152449489676e-16
4.180000000003694538e+00,-2.559511810220230264e-16,5.119023620440460528e-16
4.190000000003325731e+00,-2.565635044215741328e-16,5.131270088431482657e-16
4.200000000002993339e+00,-2.571758278211274579e-16,5.143516556422549159e-16
4.210000000002694698e+00,-2.577881512206828538e-16,5.155763024413657076e-16
4.220000000002425367e+00,-2.584004746202400246e-16,5.168009492404800492e-16
4.230000000002182681e+00,-2.590127980197988717e-16,5.180255960395977435e-16
4.240000000001964864e+00,-2.596251214193591980e-16,5.192502428387183959e-16
4.250000000001768363e+00,-2.602374448189208554e-16,5.204748896378417108e-16
4.260000000001591403e+00,-2.608497682184836962e-16,5.216995364369673923e-16
4.270000000001432205e+00,-2.614620916180476216e-16,5.229241832360952431e-16
4.280000000001288996e+00,-2.620744150176125331e-16,5.241488300352250661e-16
4.290000000001159997e+00,-2.626867384171782827e-16,5.253734768343565655e-16
4.300000000001044320e+00,-2.632990618167448706e-16,5.265981236334897411e-16
4.310000000000940190e+00,-2.639113852163121979e-16,5.278227704326243959e-16
4.320000000000846718e+00,-2.645237086158801170e-16,5.290474172317602339e-16
4.330000000000762128e+00,-2.651360320154486276e-16,5.302720640308972553e-16
4.340000000000686420e+00,-2.657483554150176807e-16,5.314967108300353613e-16
4.350000000000617817e+00,-2.663606788145871774e-16,5.327213576291743548e-16
4.360000000000556319e+00,-2.669730022141570686e-16,5.339460044283141372e-16
4.370000000000501039e+00,-2.675853256137273542e-16,5.351706512274547084e-16
4.380000000000451088e+00,-2.681976490132979849e-16,5.363952980265959699e-16
4.390000000000406466e+00,-2.688099724128689115e-16,5.376199448257378230e-16
4.400000000000366285e+00,-2.694222958124401339e-16,5.388445916248802678e-16
4.410000000000329656e+00,-2.700346192120115535e-16,5.400692384240231070e-16
4.420000000000296581e+00,-2.706469426115832196e-16,5.412938852231664392e-16
4.430000000000267057e+00,-2.712592660111550829e-16,5.425185320223101659e-16
4.440000000000240199e+00,-2.718715894107271435e-16,5.437431788214542870e-16
4.450000000000216005e+00,-2.724839128102993026e-16,5.449678256205986053e-16
4.460000000000194476e+00,-2.730962362098716590e-16,5.461924724197433180e-16
4.470000000000174722e+00,-2.737085596094441633e-16,5.474171192188883266e-16
4.480000000000157634e+00,-2.743208830090167662e-16,5.486417660180335324e-16
4.490000000000142322e+00,-2.749332064085895170e-16,5.498664128171790340e-16
4.500000000000127898e+00,-2.755455298081623171e-16,5.510910596163246342e-16
4.510000000000115250e+00,-2.761578532077352158e-16,5.523157064154704316e-16
4.520000000000103491e+00,-2.767701766073081638e-16,5.535403532146163276e-16
