ref_pos_lat (deg),ref_pos_lon (deg),ref_pos_alt (m)
3.200000000000000000e+01,1.199999999999999858e+02,0.000000000000000000e+00
3.200000009018205560e+01,1.199999999999999858e+02,-1.224646799147353192e-18
3.200000018036410410e+01,1.200000000000055422e+02,-2.449293598294706384e-18
3.200000027054615259e+01,1.200000000000215863e+02,-3.673940397442059190e-18
3.200000036072820109e+01,1.200000000000526796e+02,-4.898587196589412767e-18
3.200000045091024958e+01,1.200000000001028440e+02,-6.123233995736766344e-18
3.200000054109226966e+01,1.200000000001756604e+02,-7.347880794884119921e-18
3.200000063127428973e+01,1.200000000002744542e+02,-8.572527594031473498e-18
3.200000072145627428e+01,1.200000000004021672e+02,-9.797174393178827075e-18
3.200000081163822330e+01,1.200000000005614282e+02,-1.102182119232618065e-17
3.200000090182012258e+01,1.200000000007546248e+02,-1.224646799147353423e-17
3.200000099200196502e+01,1.200000000009839312e+02,-1.347111479062088781e-17
3.200000108218372930e+01,1.200000000012512515e+02,-1.469576158976823984e-17
3.200000117236540120e+01,1.200000000015583339e+02,-1.592040838891559342e-17
3.200000126254695942e+01,1.200000000019067414e+02,-1.714505518806294700e-17
3.200000135272840396e+01,1.200000000022978810e+02,-1.836970198721030057e-17
3.200000144290969217e+01,1.200000000027330316e+02,-1.959434878635765415e-17
3.200000153309081696e+01,1.200000000032133158e+02,-2.081899558550500773e-17
3.200000162327174991e+01,1.200000000037397569e+02,-2.204364238465236130e-17
3.200000171345247679e+01,1.200000000043133355e+02,-2.326828918379971488e-17
3.200000180363297630e+01,1.200000000049348188e+02,-2.449293598294706846e-17
3.200000189381321292e+01,1.200000000056049458e+02,-2.571758278209442203e-17
3.200000198399318663e+01,1.200000000063244556e+02,-2.694222958124177561e-17
3.200000207417285480e+01,1.200000000070939024e+02,-2.816687638038912919e-17
3.200000216435220324e+01,1.200000000079138402e+02,-2.939152317953647968e-17
3.200000225453119640e+01,1.200000000087847809e+02,-3.061616997868383018e-17
3.200000234470982008e+01,1.200000000097071648e+02,-3.184081677783118067e-17
3.200000243488805296e+01,1.200000000106813616e+02,-3.306546357697853117e-17
3.200000252506586662e+01,1.200000000117077406e+02,-3.429011037612588167e-17
3.200000261524323264e+01,1.200000000127866286e+02,-3.551475717527323216e-17
3.200000270542012260e+01,1.200000000139183243e+02,-3.673940397442058266e-17
3.200000279559652938e+01,1.200000000151030974e+02,-3.796405077356793315e-17
3.200000288577241037e+01,1.200000000163411471e+02,-3.918869757271528365e-17
3.200000297594774423e+01,1.200000000176326864e+02,-4.041334437186263414e-17
3.200000306612250256e+01,1.200000000189779286e+02,-4.163799117100998464e-17
3.200000315629667114e+01,1.200000000203770441e+02,-4.286263797015733513e-17
3.200000324647022865e+01,1.200000000218301750e+02,-4.408728476930468563e-17
3.200000333664313246e+01,1.200000000233374777e+02,-4.531193156845203612e-17
3.200000342681536125e+01,1.200000000248990233e+02,-4.653657836759938662e-17
3.200000351698690082e+01,1.200000000265149964e+02,-4.776122516674673712e-17
3.200000360715771563e+01,1.200000000281854540e+02,-4.898587196589408761e-17
3.200000369732779149e+01,1.200000000299105096e+02,-5.021051876504143811e-17
3.200000378749708574e+01,1.200000000316902202e+02,-5.143516556418878860e-17
3.200000387766559129e+01,1.200000000335246710e+02,-5.265981236333613910e-17
3.200000396783326551e+01,1.200000000354139473e+02,-5.388445916248348959e-17
3.200000405800010128e+01,1.200000000373580491e+02,-5.510910596163084009e-17
3.200000414816606309e+01,1.200000000393570900e+02,-5.633375276077819675e-17
3.200000423833112961e+01,1.200000000414110986e+02,-5.755839955992554724e-17
3.200000432849526533e+01,1.200000000435201031e+02,-5.878304635907289774e-17
3.200000441865846312e+01,1.200000000456841747e+02,-6.000769315822024823e-17
3.200000450882068748e+01,1.200000000479033133e+02,-6.123233995736759873e-17
3.200000459898190996e+01,1.200000000501775901e+02,-6.245698675651494922e-17
3.200000468914211638e+01,1.200000000525069765e+02,-6.368163355566229972e-17
3.200000477930126408e+01,1.200000000548915580e+02,-6.490628035480965022e-17
3.200000486945935307e+01,1.200000000573312917e+02,-6.613092715395700071e-17
3.200000495961634073e+01,1.200000000598262773e+02,-6.735557395310435121e-17
3.200000504977220572e+01,1.200000000623764436e+02,-6.858022075225170170e-17
3.200000513992691964e+01,1.200000000649818759e+02,-6.980486755139905220e-17
3.200000523008046116e+01,1.200000000676425742e+02,-7.102951435054640269e-17
3.200000532023281608e+01,1.200000000703585386e+02,-7.225416114969375319e-17
3.200000541038393465e+01,1.200000000731297973e+02,-7.347880794884110368e-17
3.200000550053382398e+01,1.200000000759563221e+02,-7.470345474798845418e-17
3.200000559068242723e+01,1.200000000788381556e+02,-7.592810154713580467e-17
3.200000568082973729e+01,1.200000000817753119e+02,-7.715274834628315517e-17
3.200000577097573284e+01,1.200000000847677768e+02,-7.837739514543050567e-17
3.200000586112037837e+01,1.200000000878155646e+02,-7.960204194457785616e-17
3.200000595126365255e+01,1.200000000909186895e+02,-8.082668874372520666e-17
3.200000604140552696e+01,1.200000000940771372e+02,-8.205133554287255715e-17
3.200000613154598739e+01,1.200000000972909220e+02,-8.327598234201990765e-17
3.200000622168499831e+01,1.200000001005600438e+02,-8.450062914116725814e-17
3.200000631182253841e+01,1.200000001038845454e+02,-8.572527594031460864e-17
3.200000640195858637e+01,1.200000001072643556e+02,-8.694992273946195913e-17
3.200000649209312087e+01,1.200000001106995313e+02,-8.817456953860930963e-17
3.200000658222610639e+01,1.200000001141900725e+02,-8.939921633775666012e-17
3.200000667235752161e+01,1.200000001177359508e+02,-9.062386313690401062e-17
3.200000676248734521e+01,1.200000001213372087e+02,-9.184850993605136112e-17
3.200000685261554878e+01,1.200000001249938038e+02,-9.307315673519871161e-17
3.200000694274210389e+01,1.200000001287057643e+02,-9.429780353434606211e-17
3.200000703286699633e+01,1.200000001324730903e+02,-9.552245033349341260e-17
3.200000712299019767e+01,1.200000001362957676e+02,-9.674709713264076310e-17
3.200000721311167950e+01,1.200000001401738103e+02,-9.797174393178811359e-17
3.200000730323141340e+01,1.200000001441072044e+02,-9.919639073093546409e-17
3.200000739334938515e+01,1.200000001480959781e+02,-1.004210375300828146e-16
3.200000748346556634e+01,1.200000001521401174e+02,-1.016456843292301651e-16
3.200000757357992853e+01,1.200000001562395937e+02,-1.028703311283775156e-16
3.200000766369245753e+01,1.200000001603944497e+02,-1.040949779275248661e-16
3.200000775380311069e+01,1.200000001646046570e+02,-1.053196247266722166e-16
3.200000784391187381e+01,1.200000001688702440e+02,-1.065442715258195671e-16
3.200000793401872556e+01,1.200000001731911681e+02,-1.077689183249669176e-16
3.200000802412363754e+01,1.200000001775674576e+02,-1.089935651241142681e-16
3.200000811422658131e+01,1.200000001819991127e+02,-1.102182119232616185e-16
3.200000820432753557e+01,1.200000001864861190e+02,-1.114428587224089690e-16
3.200000829442647898e+01,1.200000001910284766e+02,-1.126675055215563195e-16
3.200000838452338314e+01,1.200000001956262139e+02,-1.138921523207036700e-16
3.200000847461821962e+01,1.200000002002792883e+02,-1.151167991198510205e-16
3.200000856471096711e+01,1.200000002049877139e+02,-1.163414459189983710e-16
3.200000865480160428e+01,1.200000002097514908e+02,-1.175660927181457215e-16
3.200000874489010272e+01,1.200000002145706475e+02,-1.187907395172930720e-16
3.200000883497644111e+01,1.200000002194451412e+02,-1.200153863164404225e-16
3.200000892506059813e+01,1.200000002243749719e+02,-1.212400331155877730e-16
3.200000901514253115e+01,1.200000002293601398e+02,-1.224646799147351235e-16
3.200000910522223307e+01,1.200000002344006873e+02,-1.236893267138824740e-16
3.200000919529967547e+01,1.200000002394965719e+02,-1.249139735130298245e-16
3.200000928537482991e+01,1.200000002446477936e+02,-1.261386203121771750e-16
3.200000937544766799e+01,1.200000002498543665e+02,-1.273632671113245255e-16
3.200000946551817549e+01,1.200000002551162765e+02,-1.285879139104718760e-16
3.200000955558632398e+01,1.200000002604335236e+02,-1.298125607096192265e-16
3.200000964565209216e+01,1.200000002658061220e+02,-1.310372075087665770e-16
3.200000973571544449e+01,1.200000002712340574e+02,-1.322618543079139275e-16
3.200000982577635966e+01,1.200000002767173299e+02,-1.334865011070612780e-16
3.200000991583482346e+01,1.200000002822559253e+02,-1.347111479062086285e-16
3.200001000589079325e+01,1.200000002878498577e+02,-1.359357947053559790e-16
3.200001009594426193e+01,1.200000002934991414e+02,-1.371604415045033294e-16
3.200001018599520108e+01,1.200000002992037196e+02,-1.383850883036506799e-16
3.200001027604357517e+01,1.200000003049636632e+02,-1.396097351027980304e-16
3.200001036608937000e+01,1.200000003107789297e+02,-1.408343819019453809e-16
3.200001045613255712e+01,1.200000003166495048e+02,-1.420590287010927314e-16
3.200001054617311524e+01,1.200000003225754313e+02,-1.432836755002400819e-16
3.200001063621101594e+01,1.200000003285566521e+02,-1.445083222993874324e-16
3.200001072624623788e+01,1.200000003345932242e+02,-1.457329690985347829e-16
3.200001081627875266e+01,1.200000003406850766e+02,-1.469576158976821334e-16
3.200001090630853184e+01,1.200000003468322802e+02,-1.481822626968294839e-16
3.200001099633556123e+01,1.200000003530347925e+02,-1.494069094959768344e-16
3.200001108635980529e+01,1.200000003592926276e+02,-1.506315562951241849e-16
3.200001117638125692e+01,1.200000003656057714e+02,-1.518562030942715354e-16
3.200001126639986637e+01,1.200000003719742097e+02,-1.530808498934188859e-16
3.200001135641561945e+01,1.200000003783979565e+02,-1.543054966925662364e-16
3.200001144642850903e+01,1.200000003848770262e+02,-1.555301434917135869e-16
3.200001153643848539e+01,1.200000003914114188e+02,-1.567547902908609374e-16
3.200001162644553432e+01,1.200000003980010916e+02,-1.579794370900082879e-16
3.200001171644963449e+01,1.200000004046460873e+02,-1.592040838891556384e-16
3.200001180645075749e+01,1.200000004113463632e+02,-1.604287306883029889e-16
3.200001189644887489e+01,1.200000004181019477e+02,-1.616533774874503394e-16
3.200001198644396538e+01,1.200000004249128409e+02,-1.628780242865976899e-16
3.200001207643600765e+01,1.200000004317790143e+02,-1.641026710857450403e-16
3.200001216642497326e+01,1.200000004387004680e+02,-1.653273178848923908e-16
3.200001225641084091e+01,1.200000004456772302e+02,-1.665519646840397413e-16
3.200001234639357506e+01,1.200000004527092727e+02,-1.677766114831870918e-16
3.200001243637316151e+01,1.200000004597966239e+02,-1.690012582823344423e-16
3.200001252634957893e+01,1.200000004669392553e+02,-1.702259050814817928e-16
3.200001261632279181e+01,1.200000004741371669e+02,-1.714505518806291433e-16
3.200001270629278594e+01,1.200000004813903445e+02,-1.726751986797764938e-16
3.200001279625952577e+01,1.200000004886988307e+02,-1.738998454789238443e-16
3.200001288622299711e+01,1.200000004960625830e+02,-1.751244922780711948e-16
3.200001297618316443e+01,1.200000005034815871e+02,-1.763491390772185453e-16
3.200001306614002061e+01,1.200000005109558998e+02,-1.775737858763658958e-16
3.200001315609352304e+01,1.200000005184854643e+02,-1.787984326755132463e-16
3.200001324604364328e+01,1.200000005260702949e+02,-1.800230794746605968e-16
3.200001333599038134e+01,1.200000005337104199e+02,-1.812477262738079473e-16
3.200001342593369458e+01,1.200000005414057966e+02,-1.824723730729552978e-16
3.200001351587356169e+01,1.200000005491564252e+02,-1.836970198721026483e-16
3.200001360580995424e+01,1.200000005569623198e+02,-1.849216666712499988e-16
3.200001369574285093e+01,1.200000005648234804e+02,-1.861463134703973493e-16
3.200001378567223043e+01,1.200000005727399071e+02,-1.873709602695446998e-16
3.200001387559806432e+01,1.200000005807115713e+02,-1.885956070686920503e-16
3.200001396552033839e+01,1.200000005887385015e+02,-1.898202538678394008e-16
3.200001405543901001e+01,1.200000005968206693e+02,-1.910449006669867512e-16
3.200001414535406496e+01,1.200000006049580747e+02,-1.922695474661341017e-16
3.200001423526547484e+01,1.200000006131507604e+02,-1.934941942652814522e-16
3.200001432517321831e+01,1.200000006213986694e+02,-1.947188410644288027e-16
3.200001441507725986e+01,1.200000006297018302e+02,-1.959434878635761532e-16
3.200001450497759947e+01,1.200000006380602287e+02,-1.971681346627235037e-16
3.200001459487419453e+01,1.200000006464738362e+02,-1.983927814618708542e-16
3.200001468476701660e+01,1.200000006549427098e+02,-1.996174282610182047e-16
3.200001477465605149e+01,1.200000006634668068e+02,-2.008420750601655552e-16
3.200001486454126365e+01,1.200000006720461272e+02,-2.020667218593129057e-16
3.200001495442264599e+01,1.200000006806806709e+02,-2.032913686584602562e-16
3.200001504430016297e+01,1.200000006893704665e+02,-2.045160154576076067e-16
3.200001513417377907e+01,1.200000006981154854e+02,-2.057406622567549572e-16
3.200001522404349430e+01,1.200000007069156993e+02,-2.069653090559023077e-16
3.200001531390925891e+01,1.200000007157711508e+02,-2.081899558550496582e-16
3.200001540377107290e+01,1.200000007246817972e+02,-2.094146026541970087e-16
3.200001549362888653e+01,1.200000007336476813e+02,-2.106392494533443592e-16
3.200001558348269270e+01,1.200000007426687461e+02,-2.118638962524917097e-16
3.200001567333247010e+01,1.200000007517450342e+02,-2.130885430516390602e-16
3.200001576317816898e+01,1.200000007608765316e+02,-2.143131898507864107e-16
3.200001585301979645e+01,1.200000007700632381e+02,-2.155378366499337612e-16
3.200001594285730278e+01,1.200000007793051537e+02,-2.167624834490811117e-16
3.200001603269066663e+01,1.200000007886022360e+02,-2.179871302482284621e-16
3.200001612251988092e+01,1.200000007979545416e+02,-2.192117770473758126e-16
3.200001621234491012e+01,1.200000008073620137e+02,-2.204364238465231631e-16
3.200001630216572579e+01,1.200000008168246950e+02,-2.216610706456705136e-16
3.200001639198230663e+01,1.200000008263425713e+02,-2.228857174448178888e-16
3.200001648179463132e+01,1.200000008359156141e+02,-2.241103642439652639e-16
3.200001657160267143e+01,1.200000008455438660e+02,-2.253350110431126391e-16
3.200001666140640566e+01,1.200000008552272845e+02,-2.265596578422600142e-16
3.200001675120580558e+01,1.200000008649658554e+02,-2.277843046414073894e-16
3.200001684100084276e+01,1.200000008747596212e+02,-2.290089514405547645e-16
3.200001693079150300e+01,1.200000008846085819e+02,-2.302335982397021397e-16
3.200001702057775077e+01,1.200000008945126808e+02,-2.314582450388495148e-16
3.200001711035957896e+01,1.200000009044719604e+02,-2.326828918379968900e-16
3.200001720013694495e+01,1.200000009144864066e+02,-2.339075386371442651e-16
3.200001728990982031e+01,1.200000009245559909e+02,-2.351321854362916403e-16
3.200001737967820503e+01,1.200000009346807701e+02,-2.363568322354390154e-16
3.200001746944204939e+01,1.200000009448606733e+02,-2.375814790345863906e-16
3.200001755920134627e+01,1.200000009550957571e+02,-2.388061258337337657e-16
3.200001764895606016e+01,1.200000009653859649e+02,-2.400307726328811408e-16
3.200001773870617683e+01,1.200000009757313251e+02,-2.412554194320285160e-16
3.200001782845166076e+01,1.200000009861318375e+02,-2.424800662311758911e-16
3.200001791819248353e+01,1.200000009965874881e+02,-2.437047130303232663e-16
3.200001800792863804e+01,1.200000010070982768e+02,-2.449293598294706414e-16
3.200001809766008876e+01,1.200000010176642036e+02,-2.461540066286180166e-16
3.200001818738681436e+01,1.200000010282852827e+02,-2.473786534277653917e-16
3.200001827710878644e+01,1.200000010389614573e+02,-2.486033002269127669e-16
3.200001836682598366e+01,1.200000010496927842e+02,-2.498279470260601420e-16
3.200001845653837762e+01,1.200000010604792067e+02,-2.510525938252075172e-16
3.200001854624594699e+01,1.200000010713207814e+02,-2.522772406243548923e-16
3.200001863594867046e+01,1.200000010822174659e+02,-2.535018874235022675e-16
3.200001872564651961e+01,1.200000010931692600e+02,-2.547265342226496426e-16
3.200001881533946602e+01,1.200000011041761638e+02,-2.559511810217970178e-16
3.200001890502748836e+01,1.200000011152381774e+02,-2.571758278209443929e-16
3.200001899471057243e+01,1.200000011263553148e+02,-2.584004746200917681e-16
3.200001908438866849e+01,1.200000011375275335e+02,-2.596251214192391432e-16
3.200001917406178364e+01,1.200000011487548619e+02,-2.608497682183865184e-16
3.200001926372986105e+01,1.200000011600372858e+02,-2.620744150175338935e-16
3.200001935339290782e+01,1.200000011713748194e+02,-2.632990618166812686e-16
3.200001944305087420e+01,1.200000011827674200e+02,-2.645237086158286438e-16
3.200001953270374599e+01,1.200000011942151161e+02,-2.657483554149760189e-16
3.200001962235150188e+01,1.200000012057178935e+02,-2.669730022141233941e-16
3.200001971199410633e+01,1.200000012172757664e+02,-2.681976490132707692e-16
3.200001980163154514e+01,1.200000012288887206e+02,-2.694222958124181444e-16
3.200001989126378277e+01,1.200000012405567134e+02,-2.706469426115655195e-16
3.200001998089081212e+01,1.200000012522798158e+02,-2.718715894107128947e-16
3.200002007051259767e+01,1.200000012640579712e+02,-2.730962362098602698e-16
3.200002016012911099e+01,1.200000012758911794e+02,-2.743208830090076450e-16
3.200002024974033077e+01,1.200000012877794831e+02,-2.755455298081550201e-16
3.200002033934623569e+01,1.200000012997228254e+02,-2.767701766073023953e-16
3.200002042894681153e+01,1.200000013117212205e+02,-2.779948234064497704e-16
3.200002051854200147e+01,1.200000013237746543e+02,-2.792194702055971456e-16
3.200002060813181970e+01,1.200000013358831836e+02,-2.804441170047445207e-16
3.200002069771620938e+01,1.200000013480467231e+02,-2.816687638038918959e-16
3.200002078729516342e+01,1.200000013602653155e+02,-2.828934106030392710e-16
3.200002087686865337e+01,1.200000013725389465e+02,-2.841180574021866462e-16
3.200002096643665794e+01,1.200000013848675877e+02,-2.853427042013340213e-16
3.200002105599914159e+01,1.200000013972512960e+02,-2.865673510004813964e-16
3.200002114555609722e+01,1.200000014096900145e+02,-2.877919977996287716e-16
3.200002123510748220e+01,1.200000014221837716e+02,-2.890166445987761467e-16
3.200002132465328231e+01,1.200000014347325532e+02,-2.902412913979235219e-16
3.200002141419346913e+01,1.200000014473363308e+02,-2.914659381970708970e-16
3.200002150372802845e+01,1.200000014599951470e+02,-2.926905849962182722e-16
3.200002159325691764e+01,1.200000014727089734e+02,-2.939152317953656473e-16
3.200002168278012959e+01,1.200000014854777959e+02,-2.951398785945130225e-16
3.200002177229762879e+01,1.200000014983016143e+02,-2.963645253936603976e-16
3.200002186180939390e+01,1.200000015111804430e+02,-2.975891721928077728e-16
3.200002195131540361e+01,1.200000015241142819e+02,-2.988138189919551479e-16
3.200002204081562240e+01,1.200000015371031168e+02,-3.000384657911025231e-16
3.200002213031004317e+01,1.200000015501469193e+02,-3.012631125902498982e-16
3.200002221979862327e+01,1.200000015632457178e+02,-3.024877593893972734e-16
3.200002230928135560e+01,1.200000015763995265e+02,-3.037124061885446485e-16
3.200002239875819043e+01,1.200000015896082743e+02,-3.049370529876920237e-16
3.200002248822913486e+01,1.200000016028720182e+02,-3.061616997868393988e-16
3.200002257769414626e+01,1.200000016161907297e+02,-3.073863465859867740e-16
3.200002266715319621e+01,1.200000016295644372e+02,-3.086109933851341491e-16
3.200002275660627760e+01,1.200000016429930696e+02,-3.098356401842815242e-16
3.200002284605334779e+01,1.200000016564766838e+02,-3.110602869834288994e-16
3.200002293549438548e+01,1.200000016700152372e+02,-3.122849337825762745e-16
3.200002302492937645e+01,1.200000016836087724e+02,-3.135095805817236497e-16
3.200002311435828517e+01,1.200000016972572467e+02,-3.147342273808710248e-16
3.200002320378109033e+01,1.200000017109606603e+02,-3.159588741800184000e-16
3.200002329319777772e+01,1.200000017247190272e+02,-3.171835209791657751e-16
3.200002338260830470e+01,1.200000017385323190e+02,-3.184081677783131503e-16
3.200002347201266417e+01,1.200000017524005642e+02,-3.196328145774605254e-16
